,subject,bvp,time,time_elapsed
0,0,9.65,08:51:48.812500,0.0
1,0,4.69,08:51:48.828125,0.015625
2,0,-0.67,08:51:48.843750,0.03125
3,0,-6.82,08:51:48.859375,0.046875
4,0,-13.98,08:51:48.875000,0.0625
5,0,-21.85,08:51:48.890625,0.078125
6,0,-29.47,08:51:48.906250,0.09375
7,0,-35.23,08:51:48.921875,0.109375
8,0,-37.39,08:51:48.937500,0.125
9,0,-34.53,08:51:48.953125,0.140625
10,0,-26.17,08:51:48.968750,0.15625
11,0,-13.01,08:51:48.984375,0.171875
12,0,3.15,08:51:49,0.1875
13,0,19.92,08:51:49.015625,0.203125
14,0,34.96,08:51:49.031250,0.21875
15,0,46.6,08:51:49.046875,0.234375
16,0,54.25,08:51:49.062500,0.25
17,0,58.37,08:51:49.078125,0.265625
18,0,60.21,08:51:49.093750,0.28125
19,0,61.25,08:51:49.109375,0.296875
20,0,62.61,08:51:49.125000,0.3125
21,0,64.71,08:51:49.140625,0.328125
22,0,67.1,08:51:49.156250,0.34375
23,0,68.85,08:51:49.171875,0.359375
24,0,68.94,08:51:49.187500,0.375
25,0,66.81,08:51:49.203125,0.390625
26,0,62.55,08:51:49.218750,0.40625
27,0,56.84,08:51:49.234375,0.421875
28,0,50.54,08:51:49.250000,0.4375
29,0,44.36,08:51:49.265625,0.453125
30,0,38.59,08:51:49.281250,0.46875
31,0,33.27,08:51:49.296875,0.484375
32,0,28.3,08:51:49.312500,0.5
33,0,23.6,08:51:49.328125,0.515625
34,0,19.15,08:51:49.343750,0.53125
35,0,14.83,08:51:49.359375,0.546875
36,0,10.32,08:51:49.375000,0.5625
37,0,5.22,08:51:49.390625,0.578125
38,0,-0.68,08:51:49.406250,0.59375
39,0,-7.18,08:51:49.421875,0.609375
40,0,-13.75,08:51:49.437500,0.625
41,0,-19.72,08:51:49.453125,0.640625
42,0,-24.76,08:51:49.468750,0.65625
43,0,-29.01,08:51:49.484375,0.671875
44,0,-33.04,08:51:49.500000,0.6875
45,0,-37.26,08:51:49.515625,0.703125
46,0,-41.42,08:51:49.531250,0.71875
47,0,-44.53,08:51:49.546875,0.734375
48,0,-45.11,08:51:49.562500,0.75
49,0,-41.84,08:51:49.578125,0.765625
50,0,-34.23,08:51:49.593750,0.78125
51,0,-22.81,08:51:49.609375,0.796875
52,0,-8.91,08:51:49.625000,0.8125
53,0,5.87,08:51:49.640625,0.828125
54,0,20.22,08:51:49.656250,0.84375
55,0,33.44,08:51:49.671875,0.859375
56,0,45.38,08:51:49.687500,0.875
57,0,56.13,08:51:49.703125,0.890625
58,0,65.83,08:51:49.718750,0.90625
59,0,74.36,08:51:49.734375,0.921875
60,0,81.45,08:51:49.750000,0.9375
61,0,86.86,08:51:49.765625,0.953125
62,0,90.52,08:51:49.781250,0.96875
63,0,92.72,08:51:49.796875,0.984375
64,0,94.0,08:51:49.812500,1.0
65,0,95.09,08:51:49.828125,1.015625
66,0,96.67,08:51:49.843750,1.03125
67,0,99.24,08:51:49.859375,1.046875
68,0,102.99,08:51:49.875000,1.0625
69,0,107.72,08:51:49.890625,1.078125
70,0,112.86,08:51:49.906250,1.09375
71,0,117.55,08:51:49.921875,1.109375
72,0,120.82,08:51:49.937500,1.125
73,0,121.93,08:51:49.953125,1.140625
74,0,120.69,08:51:49.968750,1.15625
75,0,117.6,08:51:49.984375,1.171875
76,0,113.63,08:51:50,1.1875
77,0,109.93,08:51:50.015625,1.203125
78,0,107.17,08:51:50.031250,1.21875
79,0,105.16,08:51:50.046875,1.234375
80,0,102.65,08:51:50.062500,1.25
81,0,97.42,08:51:50.078125,1.265625
82,0,86.63,08:51:50.093750,1.28125
83,0,67.51,08:51:50.109375,1.296875
84,0,38.29,08:51:50.125000,1.3125
85,0,-0.97,08:51:50.140625,1.328125
86,0,-47.73,08:51:50.156250,1.34375
87,0,-97.23,08:51:50.171875,1.359375
88,0,-143.58,08:51:50.187500,1.375
89,0,-181.49,08:51:50.203125,1.390625
90,0,-207.84,08:51:50.218750,1.40625
91,0,-222.49,08:51:50.234375,1.421875
92,0,-227.8,08:51:50.250000,1.4375
93,0,-227.27,08:51:50.265625,1.453125
94,0,-223.94,08:51:50.281250,1.46875
95,0,-219.38,08:51:50.296875,1.484375
96,0,-213.53,08:51:50.312500,1.5
97,0,-205.46,08:51:50.328125,1.515625
98,0,-194.25,08:51:50.343750,1.53125
99,0,-179.61,08:51:50.359375,1.546875
100,0,-162.08,08:51:50.375000,1.5625
101,0,-142.67,08:51:50.390625,1.578125
102,0,-122.39,08:51:50.406250,1.59375
103,0,-102.04,08:51:50.421875,1.609375
104,0,-82.16,08:51:50.437500,1.625
105,0,-63.13,08:51:50.453125,1.640625
106,0,-45.35,08:51:50.468750,1.65625
107,0,-29.37,08:51:50.484375,1.671875
108,0,-15.77,08:51:50.500000,1.6875
109,0,-5.01,08:51:50.515625,1.703125
110,0,2.85,08:51:50.531250,1.71875
111,0,8.21,08:51:50.546875,1.734375
112,0,11.95,08:51:50.562500,1.75
113,0,15.02,08:51:50.578125,1.765625
114,0,18.19,08:51:50.593750,1.78125
115,0,21.66,08:51:50.609375,1.796875
116,0,25.2,08:51:50.625000,1.8125
117,0,28.33,08:51:50.640625,1.828125
118,0,30.68,08:51:50.656250,1.84375
119,0,32.21,08:51:50.671875,1.859375
120,0,33.24,08:51:50.687500,1.875
121,0,34.21,08:51:50.703125,1.890625
122,0,35.36,08:51:50.718750,1.90625
123,0,36.64,08:51:50.734375,1.921875
124,0,37.65,08:51:50.750000,1.9375
125,0,37.9,08:51:50.765625,1.953125
126,0,37.1,08:51:50.781250,1.96875
127,0,35.22,08:51:50.796875,1.984375
128,0,32.54,08:51:50.812500,2.0
129,0,29.42,08:51:50.828125,2.015625
130,0,26.19,08:51:50.843750,2.03125
131,0,22.98,08:51:50.859375,2.046875
132,0,19.79,08:51:50.875000,2.0625
133,0,16.49,08:51:50.890625,2.078125
134,0,12.95,08:51:50.906250,2.09375
135,0,9.14,08:51:50.921875,2.109375
136,0,5.09,08:51:50.937500,2.125
137,0,0.87,08:51:50.953125,2.140625
138,0,-3.48,08:51:50.968750,2.15625
139,0,-7.96,08:51:50.984375,2.171875
140,0,-12.66,08:51:51,2.1875
141,0,-17.74,08:51:51.015625,2.203125
142,0,-23.39,08:51:51.031250,2.21875
143,0,-29.76,08:51:51.046875,2.234375
144,0,-36.8,08:51:51.062500,2.25
145,0,-44.17,08:51:51.078125,2.265625
146,0,-51.02,08:51:51.093750,2.28125
147,0,-56.16,08:51:51.109375,2.296875
148,0,-58.27,08:51:51.125000,2.3125
149,0,-56.36,08:51:51.140625,2.328125
150,0,-50.11,08:51:51.156250,2.34375
151,0,-40.11,08:51:51.171875,2.359375
152,0,-27.71,08:51:51.187500,2.375
153,0,-14.58,08:51:51.203125,2.390625
154,0,-2.27,08:51:51.218750,2.40625
155,0,8.15,08:51:51.234375,2.421875
156,0,16.23,08:51:51.250000,2.4375
157,0,21.98,08:51:51.265625,2.453125
158,0,25.68,08:51:51.281250,2.46875
159,0,27.62,08:51:51.296875,2.484375
160,0,28.09,08:51:51.312500,2.5
161,0,27.37,08:51:51.328125,2.515625
162,0,25.9,08:51:51.343750,2.53125
163,0,24.22,08:51:51.359375,2.546875
164,0,22.94,08:51:51.375000,2.5625
165,0,22.59,08:51:51.390625,2.578125
166,0,23.41,08:51:51.406250,2.59375
167,0,25.28,08:51:51.421875,2.609375
168,0,27.75,08:51:51.437500,2.625
169,0,30.23,08:51:51.453125,2.640625
170,0,32.2,08:51:51.468750,2.65625
171,0,33.36,08:51:51.484375,2.671875
172,0,33.7,08:51:51.500000,2.6875
173,0,33.38,08:51:51.515625,2.703125
174,0,32.57,08:51:51.531250,2.71875
175,0,31.3,08:51:51.546875,2.734375
176,0,29.42,08:51:51.562500,2.75
177,0,26.72,08:51:51.578125,2.765625
178,0,23.03,08:51:51.593750,2.78125
179,0,18.36,08:51:51.609375,2.796875
180,0,13.0,08:51:51.625000,2.8125
181,0,7.39,08:51:51.640625,2.828125
182,0,2.04,08:51:51.656250,2.84375
183,0,-2.65,08:51:51.671875,2.859375
184,0,-6.48,08:51:51.687500,2.875
185,0,-9.58,08:51:51.703125,2.890625
186,0,-12.31,08:51:51.718750,2.90625
187,0,-15.2,08:51:51.734375,2.921875
188,0,-18.76,08:51:51.750000,2.9375
189,0,-23.35,08:51:51.765625,2.953125
190,0,-29.06,08:51:51.781250,2.96875
191,0,-35.55,08:51:51.796875,2.984375
192,0,-42.13,08:51:51.812500,3.0
193,0,-47.79,08:51:51.828125,3.015625
194,0,-51.41,08:51:51.843750,3.03125
195,0,-52.0,08:51:51.859375,3.046875
196,0,-49.02,08:51:51.875000,3.0625
197,0,-42.49,08:51:51.890625,3.078125
198,0,-33.04,08:51:51.906250,3.09375
199,0,-21.81,08:51:51.921875,3.109375
200,0,-10.12,08:51:51.937500,3.125
201,0,0.73,08:51:51.953125,3.140625
202,0,9.77,08:51:51.968750,3.15625
203,0,16.46,08:51:51.984375,3.171875
204,0,20.64,08:51:52,3.1875
205,0,22.52,08:51:52.015625,3.203125
206,0,22.46,08:51:52.031250,3.21875
207,0,20.93,08:51:52.046875,3.234375
208,0,18.41,08:51:52.062500,3.25
209,0,15.45,08:51:52.078125,3.265625
210,0,12.61,08:51:52.093750,3.28125
211,0,10.42,08:51:52.109375,3.296875
212,0,9.24,08:51:52.125000,3.3125
213,0,9.16,08:51:52.140625,3.328125
214,0,9.95,08:51:52.156250,3.34375
215,0,11.13,08:51:52.171875,3.359375
216,0,12.21,08:51:52.187500,3.375
217,0,12.81,08:51:52.203125,3.390625
218,0,12.84,08:51:52.218750,3.40625
219,0,12.46,08:51:52.234375,3.421875
220,0,11.89,08:51:52.250000,3.4375
221,0,11.25,08:51:52.265625,3.453125
222,0,10.43,08:51:52.281250,3.46875
223,0,9.13,08:51:52.296875,3.484375
224,0,7.03,08:51:52.312500,3.5
225,0,3.93,08:51:52.328125,3.515625
226,0,-0.11,08:51:52.343750,3.53125
227,0,-4.72,08:51:52.359375,3.546875
228,0,-9.42,08:51:52.375000,3.5625
229,0,-13.75,08:51:52.390625,3.578125
230,0,-17.45,08:51:52.406250,3.59375
231,0,-20.61,08:51:52.421875,3.609375
232,0,-23.62,08:51:52.437500,3.625
233,0,-27.02,08:51:52.453125,3.640625
234,0,-31.28,08:51:52.468750,3.65625
235,0,-36.64,08:51:52.484375,3.671875
236,0,-42.9,08:51:52.500000,3.6875
237,0,-49.36,08:51:52.515625,3.703125
238,0,-54.92,08:51:52.531250,3.71875
239,0,-58.33,08:51:52.546875,3.734375
240,0,-58.51,08:51:52.562500,3.75
241,0,-54.86,08:51:52.578125,3.765625
242,0,-47.45,08:51:52.593750,3.78125
243,0,-37.03,08:51:52.609375,3.796875
244,0,-24.82,08:51:52.625000,3.8125
245,0,-12.19,08:51:52.640625,3.828125
246,0,-0.35,08:51:52.656250,3.84375
247,0,9.83,08:51:52.671875,3.859375
248,0,17.94,08:51:52.687500,3.875
249,0,23.88,08:51:52.703125,3.890625
250,0,27.75,08:51:52.718750,3.90625
251,0,29.74,08:51:52.734375,3.921875
252,0,30.07,08:51:52.750000,3.9375
253,0,29.04,08:51:52.765625,3.953125
254,0,27.09,08:51:52.781250,3.96875
255,0,24.75,08:51:52.796875,3.984375
256,0,22.58,08:51:52.812500,4.0
257,0,21.05,08:51:52.828125,4.015625
258,0,20.4,08:51:52.843750,4.03125
259,0,20.58,08:51:52.859375,4.046875
260,0,21.27,08:51:52.875000,4.0625
261,0,21.99,08:51:52.890625,4.078125
262,0,22.31,08:51:52.906250,4.09375
263,0,21.98,08:51:52.921875,4.109375
264,0,21.01,08:51:52.937500,4.125
265,0,19.63,08:51:52.953125,4.140625
266,0,18.15,08:51:52.968750,4.15625
267,0,16.78,08:51:52.984375,4.171875
268,0,15.5,08:51:53,4.1875
269,0,14.12,08:51:53.015625,4.203125
270,0,12.28,08:51:53.031250,4.21875
271,0,9.71,08:51:53.046875,4.234375
272,0,6.27,08:51:53.062500,4.25
273,0,2.05,08:51:53.078125,4.265625
274,0,-2.65,08:51:53.093750,4.28125
275,0,-7.44,08:51:53.109375,4.296875
276,0,-11.99,08:51:53.125000,4.3125
277,0,-16.06,08:51:53.140625,4.328125
278,0,-19.68,08:51:53.156250,4.34375
279,0,-23.07,08:51:53.171875,4.359375
280,0,-26.6,08:51:53.187500,4.375
281,0,-30.71,08:51:53.203125,4.390625
282,0,-35.76,08:51:53.218750,4.40625
283,0,-41.85,08:51:53.234375,4.421875
284,0,-48.63,08:51:53.250000,4.4375
285,0,-55.26,08:51:53.265625,4.453125
286,0,-60.49,08:51:53.281250,4.46875
287,0,-62.91,08:51:53.296875,4.484375
288,0,-61.43,08:51:53.312500,4.5
289,0,-55.61,08:51:53.328125,4.515625
290,0,-45.81,08:51:53.343750,4.53125
291,0,-33.19,08:51:53.359375,4.546875
292,0,-19.31,08:51:53.375000,4.5625
293,0,-5.72,08:51:53.390625,4.578125
294,0,6.37,08:51:53.406250,4.59375
295,0,16.3,08:51:53.421875,4.609375
296,0,23.83,08:51:53.437500,4.625
297,0,29.02,08:51:53.453125,4.640625
298,0,32.1,08:51:53.468750,4.65625
299,0,33.31,08:51:53.484375,4.671875
300,0,33.01,08:51:53.500000,4.6875
301,0,31.62,08:51:53.515625,4.703125
302,0,29.68,08:51:53.531250,4.71875
303,0,27.7,08:51:53.546875,4.734375
304,0,26.09,08:51:53.562500,4.75
305,0,25.09,08:51:53.578125,4.765625
306,0,24.73,08:51:53.593750,4.78125
307,0,24.88,08:51:53.609375,4.796875
308,0,25.33,08:51:53.625000,4.8125
309,0,25.86,08:51:53.640625,4.828125
310,0,26.28,08:51:53.656250,4.84375
311,0,26.46,08:51:53.671875,4.859375
312,0,26.29,08:51:53.687500,4.875
313,0,25.77,08:51:53.703125,4.890625
314,0,24.93,08:51:53.718750,4.90625
315,0,23.79,08:51:53.734375,4.921875
316,0,22.32,08:51:53.750000,4.9375
317,0,20.39,08:51:53.765625,4.953125
318,0,17.82,08:51:53.781250,4.96875
319,0,14.43,08:51:53.796875,4.984375
320,0,10.23,08:51:53.812500,5.0
321,0,5.43,08:51:53.828125,5.015625
322,0,0.42,08:51:53.843750,5.03125
323,0,-4.38,08:51:53.859375,5.046875
324,0,-8.67,08:51:53.875000,5.0625
325,0,-12.46,08:51:53.890625,5.078125
326,0,-15.96,08:51:53.906250,5.09375
327,0,-19.55,08:51:53.921875,5.109375
328,0,-23.64,08:51:53.937500,5.125
329,0,-28.54,08:51:53.953125,5.140625
330,0,-34.33,08:51:53.968750,5.15625
331,0,-40.78,08:51:53.984375,5.171875
332,0,-47.25,08:51:54,5.1875
333,0,-52.68,08:51:54.015625,5.203125
334,0,-55.8,08:51:54.031250,5.21875
335,0,-55.38,08:51:54.046875,5.234375
336,0,-50.74,08:51:54.062500,5.25
337,0,-41.99,08:51:54.078125,5.265625
338,0,-30.05,08:51:54.093750,5.28125
339,0,-16.44,08:51:54.109375,5.296875
340,0,-2.8,08:51:54.125000,5.3125
341,0,9.52,08:51:54.140625,5.328125
342,0,19.68,08:51:54.156250,5.34375
343,0,27.34,08:51:54.171875,5.359375
344,0,32.52,08:51:54.187500,5.375
345,0,35.48,08:51:54.203125,5.390625
346,0,36.53,08:51:54.218750,5.40625
347,0,36.08,08:51:54.234375,5.421875
348,0,34.57,08:51:54.250000,5.4375
349,0,32.48,08:51:54.265625,5.453125
350,0,30.27,08:51:54.281250,5.46875
351,0,28.33,08:51:54.296875,5.484375
352,0,26.95,08:51:54.312500,5.5
353,0,26.29,08:51:54.328125,5.515625
354,0,26.36,08:51:54.343750,5.53125
355,0,27.01,08:51:54.359375,5.546875
356,0,27.96,08:51:54.375000,5.5625
357,0,28.89,08:51:54.390625,5.578125
358,0,29.54,08:51:54.406250,5.59375
359,0,29.77,08:51:54.421875,5.609375
360,0,29.54,08:51:54.437500,5.625
361,0,28.82,08:51:54.453125,5.640625
362,0,27.58,08:51:54.468750,5.65625
363,0,25.7,08:51:54.484375,5.671875
364,0,23.09,08:51:54.500000,5.6875
365,0,19.72,08:51:54.515625,5.703125
366,0,15.71,08:51:54.531250,5.71875
367,0,11.27,08:51:54.546875,5.734375
368,0,6.67,08:51:54.562500,5.75
369,0,2.14,08:51:54.578125,5.765625
370,0,-2.14,08:51:54.593750,5.78125
371,0,-6.07,08:51:54.609375,5.796875
372,0,-9.71,08:51:54.625000,5.8125
373,0,-13.15,08:51:54.640625,5.828125
374,0,-16.63,08:51:54.656250,5.84375
375,0,-20.4,08:51:54.671875,5.859375
376,0,-24.74,08:51:54.687500,5.875
377,0,-29.82,08:51:54.703125,5.890625
378,0,-35.6,08:51:54.718750,5.90625
379,0,-41.72,08:51:54.734375,5.921875
380,0,-47.45,08:51:54.750000,5.9375
381,0,-51.75,08:51:54.765625,5.953125
382,0,-53.5,08:51:54.781250,5.96875
383,0,-51.79,08:51:54.796875,5.984375
384,0,-46.24,08:51:54.812500,6.0
385,0,-37.19,08:51:54.828125,6.015625
386,0,-25.65,08:51:54.843750,6.03125
387,0,-13.0,08:51:54.859375,6.046875
388,0,-0.64,08:51:54.875000,6.0625
389,0,10.33,08:51:54.890625,6.078125
390,0,19.23,08:51:54.906250,6.09375
391,0,25.78,08:51:54.921875,6.109375
392,0,29.92,08:51:54.937500,6.125
393,0,31.8,08:51:54.953125,6.140625
394,0,31.69,08:51:54.968750,6.15625
395,0,30.04,08:51:54.984375,6.171875
396,0,27.46,08:51:55,6.1875
397,0,24.67,08:51:55.015625,6.203125
398,0,22.32,08:51:55.031250,6.21875
399,0,20.85,08:51:55.046875,6.234375
400,0,20.38,08:51:55.062500,6.25
401,0,20.73,08:51:55.078125,6.265625
402,0,21.53,08:51:55.093750,6.28125
403,0,22.37,08:51:55.109375,6.296875
404,0,22.97,08:51:55.125000,6.3125
405,0,23.2,08:51:55.140625,6.328125
406,0,23.12,08:51:55.156250,6.34375
407,0,22.87,08:51:55.171875,6.359375
408,0,22.51,08:51:55.187500,6.375
409,0,21.97,08:51:55.203125,6.390625
410,0,21.07,08:51:55.218750,6.40625
411,0,19.52,08:51:55.234375,6.421875
412,0,17.12,08:51:55.250000,6.4375
413,0,13.86,08:51:55.265625,6.453125
414,0,10.01,08:51:55.281250,6.46875
415,0,5.95,08:51:55.296875,6.484375
416,0,2.13,08:51:55.312500,6.5
417,0,-1.2,08:51:55.328125,6.515625
418,0,-4.07,08:51:55.343750,6.53125
419,0,-6.76,08:51:55.359375,6.546875
420,0,-9.72,08:51:55.375000,6.5625
421,0,-13.4,08:51:55.390625,6.578125
422,0,-18.08,08:51:55.406250,6.59375
423,0,-23.75,08:51:55.421875,6.609375
424,0,-30.03,08:51:55.437500,6.625
425,0,-36.18,08:51:55.453125,6.640625
426,0,-41.17,08:51:55.468750,6.65625
427,0,-43.86,08:51:55.484375,6.671875
428,0,-43.29,08:51:55.500000,6.6875
429,0,-39.01,08:51:55.515625,6.703125
430,0,-31.25,08:51:55.531250,6.71875
431,0,-20.91,08:51:55.546875,6.734375
432,0,-9.4,08:51:55.562500,6.75
433,0,1.81,08:51:55.578125,6.765625
434,0,11.55,08:51:55.593750,6.78125
435,0,19.13,08:51:55.609375,6.796875
436,0,24.42,08:51:55.625000,6.8125
437,0,27.64,08:51:55.640625,6.828125
438,0,29.13,08:51:55.656250,6.84375
439,0,29.26,08:51:55.671875,6.859375
440,0,28.36,08:51:55.687500,6.875
441,0,26.81,08:51:55.703125,6.890625
442,0,25.05,08:51:55.718750,6.90625
443,0,23.57,08:51:55.734375,6.921875
444,0,22.78,08:51:55.750000,6.9375
445,0,22.88,08:51:55.765625,6.953125
446,0,23.76,08:51:55.781250,6.96875
447,0,25.02,08:51:55.796875,6.984375
448,0,26.14,08:51:55.812500,7.0
449,0,26.72,08:51:55.828125,7.015625
450,0,26.63,08:51:55.843750,7.03125
451,0,26.03,08:51:55.859375,7.046875
452,0,25.25,08:51:55.875000,7.0625
453,0,24.55,08:51:55.890625,7.078125
454,0,23.95,08:51:55.906250,7.09375
455,0,23.19,08:51:55.921875,7.109375
456,0,21.87,08:51:55.937500,7.125
457,0,19.63,08:51:55.953125,7.140625
458,0,16.39,08:51:55.968750,7.15625
459,0,12.32,08:51:55.984375,7.171875
460,0,7.74,08:51:56,7.1875
461,0,2.96,08:51:56.015625,7.203125
462,0,-2.0,08:51:56.031250,7.21875
463,0,-7.27,08:51:56.046875,7.234375
464,0,-13.09,08:51:56.062500,7.25
465,0,-19.67,08:51:56.078125,7.265625
466,0,-27.04,08:51:56.093750,7.28125
467,0,-35.04,08:51:56.109375,7.296875
468,0,-43.32,08:51:56.125000,7.3125
469,0,-51.25,08:51:56.140625,7.328125
470,0,-57.92,08:51:56.156250,7.34375
471,0,-62.21,08:51:56.171875,7.359375
472,0,-63.06,08:51:56.187500,7.375
473,0,-59.8,08:51:56.203125,7.390625
474,0,-52.45,08:51:56.218750,7.40625
475,0,-41.9,08:51:56.234375,7.421875
476,0,-29.63,08:51:56.250000,7.4375
477,0,-17.25,08:51:56.265625,7.453125
478,0,-6.1,08:51:56.281250,7.46875
479,0,3.08,08:51:56.296875,7.484375
480,0,10.01,08:51:56.312500,7.5
481,0,14.71,08:51:56.328125,7.515625
482,0,17.26,08:51:56.343750,7.53125
483,0,17.75,08:51:56.359375,7.546875
484,0,16.3,08:51:56.375000,7.5625
485,0,13.31,08:51:56.390625,7.578125
486,0,9.42,08:51:56.406250,7.59375
487,0,5.49,08:51:56.421875,7.609375
488,0,2.38,08:51:56.437500,7.625
489,0,0.68,08:51:56.453125,7.640625
490,0,0.57,08:51:56.468750,7.65625
491,0,1.82,08:51:56.484375,7.671875
492,0,3.92,08:51:56.500000,7.6875
493,0,6.28,08:51:56.515625,7.703125
494,0,8.46,08:51:56.531250,7.71875
495,0,10.2,08:51:56.546875,7.734375
496,0,11.4,08:51:56.562500,7.75
497,0,12.03,08:51:56.578125,7.765625
498,0,12.02,08:51:56.593750,7.78125
499,0,11.23,08:51:56.609375,7.796875
500,0,9.51,08:51:56.625000,7.8125
501,0,6.84,08:51:56.640625,7.828125
502,0,3.4,08:51:56.656250,7.84375
503,0,-0.45,08:51:56.671875,7.859375
504,0,-4.24,08:51:56.687500,7.875
505,0,-7.59,08:51:56.703125,7.890625
506,0,-10.33,08:51:56.718750,7.90625
507,0,-12.57,08:51:56.734375,7.921875
508,0,-14.7,08:51:56.750000,7.9375
509,0,-17.26,08:51:56.765625,7.953125
510,0,-20.75,08:51:56.781250,7.96875
511,0,-25.51,08:51:56.796875,7.984375
512,0,-31.46,08:51:56.812500,8.0
513,0,-38.06,08:51:56.828125,8.015625
514,0,-44.26,08:51:56.843750,8.03125
515,0,-48.71,08:51:56.859375,8.046875
516,0,-50.03,08:51:56.875000,8.0625
517,0,-47.31,08:51:56.890625,8.078125
518,0,-40.37,08:51:56.906250,8.09375
519,0,-29.89,08:51:56.921875,8.109375
520,0,-17.28,08:51:56.937500,8.125
521,0,-4.22,08:51:56.953125,8.140625
522,0,7.74,08:51:56.968750,8.15625
523,0,17.58,08:51:56.984375,8.171875
524,0,24.92,08:51:57,8.1875
525,0,29.84,08:51:57.015625,8.203125
526,0,32.65,08:51:57.031250,8.21875
527,0,33.65,08:51:57.046875,8.234375
528,0,33.08,08:51:57.062500,8.25
529,0,31.19,08:51:57.078125,8.265625
530,0,28.4,08:51:57.093750,8.28125
531,0,25.29,08:51:57.109375,8.296875
532,0,22.6,08:51:57.125000,8.3125
533,0,20.9,08:51:57.140625,8.328125
534,0,20.42,08:51:57.156250,8.34375
535,0,20.97,08:51:57.171875,8.359375
536,0,22.03,08:51:57.187500,8.375
537,0,22.97,08:51:57.203125,8.390625
538,0,23.41,08:51:57.218750,8.40625
539,0,23.26,08:51:57.234375,8.421875
540,0,22.73,08:51:57.250000,8.4375
541,0,22.09,08:51:57.265625,8.453125
542,0,21.48,08:51:57.281250,8.46875
543,0,20.79,08:51:57.296875,8.484375
544,0,19.69,08:51:57.312500,8.5
545,0,17.81,08:51:57.328125,8.515625
546,0,14.89,08:51:57.343750,8.53125
547,0,10.95,08:51:57.359375,8.546875
548,0,6.3,08:51:57.375000,8.5625
549,0,1.44,08:51:57.390625,8.578125
550,0,-3.1,08:51:57.406250,8.59375
551,0,-6.95,08:51:57.421875,8.609375
552,0,-10.07,08:51:57.437500,8.625
553,0,-12.71,08:51:57.453125,8.640625
554,0,-15.39,08:51:57.468750,8.65625
555,0,-18.65,08:51:57.484375,8.671875
556,0,-22.88,08:51:57.500000,8.6875
557,0,-28.15,08:51:57.515625,8.703125
558,0,-34.15,08:51:57.531250,8.71875
559,0,-40.14,08:51:57.546875,8.734375
560,0,-45.1,08:51:57.562500,8.75
561,0,-47.94,08:51:57.578125,8.765625
562,0,-47.76,08:51:57.593750,8.78125
563,0,-44.08,08:51:57.609375,8.796875
564,0,-37.06,08:51:57.625000,8.8125
565,0,-27.5,08:51:57.640625,8.828125
566,0,-16.57,08:51:57.656250,8.84375
567,0,-5.56,08:51:57.671875,8.859375
568,0,4.44,08:51:57.687500,8.875
569,0,12.77,08:51:57.703125,8.890625
570,0,19.15,08:51:57.718750,8.90625
571,0,23.62,08:51:57.734375,8.921875
572,0,26.37,08:51:57.750000,8.9375
573,0,27.68,08:51:57.765625,8.953125
574,0,27.86,08:51:57.781250,8.96875
575,0,27.26,08:51:57.796875,8.984375
576,0,26.23,08:51:57.812500,9.0
577,0,25.11,08:51:57.828125,9.015625
578,0,24.15,08:51:57.843750,9.03125
579,0,23.57,08:51:57.859375,9.046875
580,0,23.43,08:51:57.875000,9.0625
581,0,23.76,08:51:57.890625,9.078125
582,0,24.49,08:51:57.906250,9.09375
583,0,25.44,08:51:57.921875,9.109375
584,0,26.34,08:51:57.937500,9.125
585,0,26.91,08:51:57.953125,9.140625
586,0,26.92,08:51:57.968750,9.15625
587,0,26.23,08:51:57.984375,9.171875
588,0,24.88,08:51:58,9.1875
589,0,22.97,08:51:58.015625,9.203125
590,0,20.66,08:51:58.031250,9.21875
591,0,18.04,08:51:58.046875,9.234375
592,0,15.17,08:51:58.062500,9.25
593,0,12.07,08:51:58.078125,9.265625
594,0,8.76,08:51:58.093750,9.28125
595,0,5.31,08:51:58.109375,9.296875
596,0,1.8,08:51:58.125000,9.3125
597,0,-1.67,08:51:58.140625,9.328125
598,0,-4.99,08:51:58.156250,9.34375
599,0,-8.07,08:51:58.171875,9.359375
600,0,-10.85,08:51:58.187500,9.375
601,0,-13.3,08:51:58.203125,9.390625
602,0,-15.54,08:51:58.218750,9.40625
603,0,-17.74,08:51:58.234375,9.421875
604,0,-20.19,08:51:58.250000,9.4375
605,0,-23.24,08:51:58.265625,9.453125
606,0,-27.18,08:51:58.281250,9.46875
607,0,-32.13,08:51:58.296875,9.484375
608,0,-37.85,08:51:58.312500,9.5
609,0,-43.72,08:51:58.328125,9.515625
610,0,-48.7,08:51:58.343750,9.53125
611,0,-51.58,08:51:58.359375,9.546875
612,0,-51.3,08:51:58.375000,9.5625
613,0,-47.26,08:51:58.390625,9.578125
614,0,-39.61,08:51:58.406250,9.59375
615,0,-29.21,08:51:58.421875,9.609375
616,0,-17.41,08:51:58.437500,9.625
617,0,-5.66,08:51:58.453125,9.640625
618,0,4.81,08:51:58.468750,9.65625
619,0,13.28,08:51:58.484375,9.671875
620,0,19.53,08:51:58.500000,9.6875
621,0,23.72,08:51:58.515625,9.703125
622,0,26.18,08:51:58.531250,9.71875
623,0,27.26,08:51:58.546875,9.734375
624,0,27.25,08:51:58.562500,9.75
625,0,26.44,08:51:58.578125,9.765625
626,0,25.09,08:51:58.593750,9.78125
627,0,23.57,08:51:58.609375,9.796875
628,0,22.23,08:51:58.625000,9.8125
629,0,21.41,08:51:58.640625,9.828125
630,0,21.28,08:51:58.656250,9.84375
631,0,21.78,08:51:58.671875,9.859375
632,0,22.74,08:51:58.687500,9.875
633,0,23.89,08:51:58.703125,9.890625
634,0,25.0,08:51:58.718750,9.90625
635,0,25.92,08:51:58.734375,9.921875
636,0,26.52,08:51:58.750000,9.9375
637,0,26.68,08:51:58.765625,9.953125
638,0,26.26,08:51:58.781250,9.96875
639,0,25.14,08:51:58.796875,9.984375
640,0,23.27,08:51:58.812500,10.0
641,0,20.73,08:51:58.828125,10.015625
642,0,17.71,08:51:58.843750,10.03125
643,0,14.48,08:51:58.859375,10.046875
644,0,11.22,08:51:58.875000,10.0625
645,0,8.01,08:51:58.890625,10.078125
646,0,4.84,08:51:58.906250,10.09375
647,0,1.62,08:51:58.921875,10.109375
648,0,-1.71,08:51:58.937500,10.125
649,0,-5.11,08:51:58.953125,10.140625
650,0,-8.47,08:51:58.968750,10.15625
651,0,-11.63,08:51:58.984375,10.171875
652,0,-14.43,08:51:59,10.1875
653,0,-16.8,08:51:59.015625,10.203125
654,0,-18.85,08:51:59.031250,10.21875
655,0,-20.87,08:51:59.046875,10.234375
656,0,-23.3,08:51:59.062500,10.25
657,0,-26.57,08:51:59.078125,10.265625
658,0,-30.91,08:51:59.093750,10.28125
659,0,-36.14,08:51:59.109375,10.296875
660,0,-41.61,08:51:59.125000,10.3125
661,0,-46.27,08:51:59.140625,10.328125
662,0,-48.88,08:51:59.156250,10.34375
663,0,-48.38,08:51:59.171875,10.359375
664,0,-44.2,08:51:59.187500,10.375
665,0,-36.5,08:51:59.203125,10.390625
666,0,-26.12,08:51:59.218750,10.40625
667,0,-14.41,08:51:59.234375,10.421875
668,0,-2.86,08:51:59.250000,10.4375
669,0,7.32,08:51:59.265625,10.453125
670,0,15.36,08:51:59.281250,10.46875
671,0,20.98,08:51:59.296875,10.484375
672,0,24.29,08:51:59.312500,10.5
673,0,25.63,08:51:59.328125,10.515625
674,0,25.42,08:51:59.343750,10.53125
675,0,24.12,08:51:59.359375,10.546875
676,0,22.17,08:51:59.375000,10.5625
677,0,20.04,08:51:59.390625,10.578125
678,0,18.17,08:51:59.406250,10.59375
679,0,16.94,08:51:59.421875,10.609375
680,0,16.53,08:51:59.437500,10.625
681,0,16.96,08:51:59.453125,10.640625
682,0,18.02,08:51:59.468750,10.65625
683,0,19.4,08:51:59.484375,10.671875
684,0,20.73,08:51:59.500000,10.6875
685,0,21.71,08:51:59.515625,10.703125
686,0,22.18,08:51:59.531250,10.71875
687,0,22.07,08:51:59.546875,10.734375
688,0,21.46,08:51:59.562500,10.75
689,0,20.41,08:51:59.578125,10.765625
690,0,18.99,08:51:59.593750,10.78125
691,0,17.19,08:51:59.609375,10.796875
692,0,15.0,08:51:59.625000,10.8125
693,0,12.44,08:51:59.640625,10.828125
694,0,9.63,08:51:59.656250,10.84375
695,0,6.75,08:51:59.671875,10.859375
696,0,3.95,08:51:59.687500,10.875
697,0,1.32,08:51:59.703125,10.890625
698,0,-1.17,08:51:59.718750,10.90625
699,0,-3.59,08:51:59.734375,10.921875
700,0,-6.02,08:51:59.750000,10.9375
701,0,-8.48,08:51:59.765625,10.953125
702,0,-10.9,08:51:59.781250,10.96875
703,0,-13.2,08:51:59.796875,10.984375
704,0,-15.33,08:51:59.812500,11.0
705,0,-17.4,08:51:59.828125,11.015625
706,0,-19.68,08:51:59.843750,11.03125
707,0,-22.55,08:51:59.859375,11.046875
708,0,-26.32,08:51:59.875000,11.0625
709,0,-31.13,08:51:59.890625,11.078125
710,0,-36.7,08:51:59.906250,11.09375
711,0,-42.3,08:51:59.921875,11.109375
712,0,-46.85,08:51:59.937500,11.125
713,0,-49.13,08:51:59.953125,11.140625
714,0,-48.13,08:51:59.968750,11.15625
715,0,-43.4,08:51:59.984375,11.171875
716,0,-35.26,08:52:00,11.1875
717,0,-24.67,08:52:00.015625,11.203125
718,0,-13.09,08:52:00.031250,11.21875
719,0,-1.96,08:52:00.046875,11.234375
720,0,7.59,08:52:00.062500,11.25
721,0,14.94,08:52:00.078125,11.265625
722,0,19.95,08:52:00.093750,11.28125
723,0,22.82,08:52:00.109375,11.296875
724,0,23.87,08:52:00.125000,11.3125
725,0,23.44,08:52:00.140625,11.328125
726,0,21.91,08:52:00.156250,11.34375
727,0,19.69,08:52:00.171875,11.359375
728,0,17.32,08:52:00.187500,11.375
729,0,15.33,08:52:00.203125,11.390625
730,0,14.15,08:52:00.218750,11.40625
731,0,13.99,08:52:00.234375,11.421875
732,0,14.78,08:52:00.250000,11.4375
733,0,16.19,08:52:00.265625,11.453125
734,0,17.8,08:52:00.281250,11.46875
735,0,19.25,08:52:00.296875,11.484375
736,0,20.31,08:52:00.312500,11.5
737,0,20.89,08:52:00.328125,11.515625
738,0,21.05,08:52:00.343750,11.53125
739,0,20.8,08:52:00.359375,11.546875
740,0,20.12,08:52:00.375000,11.5625
741,0,18.95,08:52:00.390625,11.578125
742,0,17.26,08:52:00.406250,11.59375
743,0,15.14,08:52:00.421875,11.609375
744,0,12.82,08:52:00.437500,11.625
745,0,10.55,08:52:00.453125,11.640625
746,0,8.5,08:52:00.468750,11.65625
747,0,6.65,08:52:00.484375,11.671875
748,0,4.73,08:52:00.500000,11.6875
749,0,2.44,08:52:00.515625,11.703125
750,0,-0.45,08:52:00.531250,11.71875
751,0,-3.92,08:52:00.546875,11.734375
752,0,-7.71,08:52:00.562500,11.75
753,0,-11.42,08:52:00.578125,11.765625
754,0,-14.75,08:52:00.593750,11.78125
755,0,-17.54,08:52:00.609375,11.796875
756,0,-19.93,08:52:00.625000,11.8125
757,0,-22.28,08:52:00.640625,11.828125
758,0,-25.0,08:52:00.656250,11.84375
759,0,-28.45,08:52:00.671875,11.859375
760,0,-32.75,08:52:00.687500,11.875
761,0,-37.73,08:52:00.703125,11.890625
762,0,-42.84,08:52:00.718750,11.90625
763,0,-47.15,08:52:00.734375,11.921875
764,0,-49.58,08:52:00.750000,11.9375
765,0,-49.11,08:52:00.765625,11.953125
766,0,-45.19,08:52:00.781250,11.96875
767,0,-37.9,08:52:00.796875,11.984375
768,0,-28.05,08:52:00.812500,12.0
769,0,-16.91,08:52:00.828125,12.015625
770,0,-5.86,08:52:00.843750,12.03125
771,0,4.0,08:52:00.859375,12.046875
772,0,12.01,08:52:00.875000,12.0625
773,0,17.95,08:52:00.890625,12.078125
774,0,21.88,08:52:00.906250,12.09375
775,0,23.94,08:52:00.921875,12.109375
776,0,24.27,08:52:00.937500,12.125
777,0,23.11,08:52:00.953125,12.140625
778,0,20.84,08:52:00.968750,12.15625
779,0,18.08,08:52:00.984375,12.171875
780,0,15.56,08:52:01,12.1875
781,0,13.92,08:52:01.015625,12.203125
782,0,13.57,08:52:01.031250,12.21875
783,0,14.5,08:52:01.046875,12.234375
784,0,16.34,08:52:01.062500,12.25
785,0,18.46,08:52:01.078125,12.265625
786,0,20.27,08:52:01.093750,12.28125
787,0,21.29,08:52:01.109375,12.296875
788,0,21.39,08:52:01.125000,12.3125
789,0,20.65,08:52:01.140625,12.328125
790,0,19.34,08:52:01.156250,12.34375
791,0,17.67,08:52:01.171875,12.359375
792,0,15.77,08:52:01.187500,12.375
793,0,13.59,08:52:01.203125,12.390625
794,0,11.02,08:52:01.218750,12.40625
795,0,7.99,08:52:01.234375,12.421875
796,0,4.57,08:52:01.250000,12.4375
797,0,0.98,08:52:01.265625,12.453125
798,0,-2.5,08:52:01.281250,12.46875
799,0,-5.63,08:52:01.296875,12.484375
800,0,-8.33,08:52:01.312500,12.5
801,0,-10.69,08:52:01.328125,12.515625
802,0,-12.93,08:52:01.343750,12.53125
803,0,-15.24,08:52:01.359375,12.546875
804,0,-17.83,08:52:01.375000,12.5625
805,0,-20.82,08:52:01.390625,12.578125
806,0,-24.29,08:52:01.406250,12.59375
807,0,-28.32,08:52:01.421875,12.609375
808,0,-32.84,08:52:01.437500,12.625
809,0,-37.52,08:52:01.453125,12.640625
810,0,-41.66,08:52:01.468750,12.65625
811,0,-44.24,08:52:01.484375,12.671875
812,0,-44.16,08:52:01.500000,12.6875
813,0,-40.7,08:52:01.515625,12.703125
814,0,-33.81,08:52:01.531250,12.71875
815,0,-24.2,08:52:01.546875,12.734375
816,0,-13.22,08:52:01.562500,12.75
817,0,-2.36,08:52:01.578125,12.765625
818,0,7.17,08:52:01.593750,12.78125
819,0,14.69,08:52:01.609375,12.796875
820,0,20.02,08:52:01.625000,12.8125
821,0,23.34,08:52:01.640625,12.828125
822,0,24.84,08:52:01.656250,12.84375
823,0,24.72,08:52:01.671875,12.859375
824,0,23.16,08:52:01.687500,12.875
825,0,20.49,08:52:01.703125,12.890625
826,0,17.27,08:52:01.718750,12.90625
827,0,14.23,08:52:01.734375,12.921875
828,0,12.01,08:52:01.750000,12.9375
829,0,11.05,08:52:01.765625,12.953125
830,0,11.34,08:52:01.781250,12.96875
831,0,12.49,08:52:01.796875,12.984375
832,0,13.92,08:52:01.812500,13.0
833,0,15.05,08:52:01.828125,13.015625
834,0,15.52,08:52:01.843750,13.03125
835,0,15.28,08:52:01.859375,13.046875
836,0,14.49,08:52:01.875000,13.0625
837,0,13.39,08:52:01.890625,13.078125
838,0,12.17,08:52:01.906250,13.09375
839,0,10.79,08:52:01.921875,13.109375
840,0,9.06,08:52:01.937500,13.125
841,0,6.71,08:52:01.953125,13.140625
842,0,3.59,08:52:01.968750,13.15625
843,0,-0.21,08:52:01.984375,13.171875
844,0,-4.37,08:52:02,13.1875
845,0,-8.41,08:52:02.015625,13.203125
846,0,-11.92,08:52:02.031250,13.21875
847,0,-14.76,08:52:02.046875,13.234375
848,0,-17.1,08:52:02.062500,13.25
849,0,-19.41,08:52:02.078125,13.265625
850,0,-22.23,08:52:02.093750,13.28125
851,0,-26.02,08:52:02.109375,13.296875
852,0,-30.94,08:52:02.125000,13.3125
853,0,-36.8,08:52:02.140625,13.328125
854,0,-43.08,08:52:02.156250,13.34375
855,0,-48.96,08:52:02.171875,13.359375
856,0,-53.44,08:52:02.187500,13.375
857,0,-55.49,08:52:02.203125,13.390625
858,0,-54.28,08:52:02.218750,13.40625
859,0,-49.42,08:52:02.234375,13.421875
860,0,-41.14,08:52:02.250000,13.4375
861,0,-30.31,08:52:02.265625,13.453125
862,0,-18.24,08:52:02.281250,13.46875
863,0,-6.35,08:52:02.296875,13.484375
864,0,4.17,08:52:02.312500,13.5
865,0,12.58,08:52:02.328125,13.515625
866,0,18.65,08:52:02.343750,13.53125
867,0,22.51,08:52:02.359375,13.546875
868,0,24.45,08:52:02.375000,13.5625
869,0,24.79,08:52:02.390625,13.578125
870,0,23.91,08:52:02.406250,13.59375
871,0,22.18,08:52:02.421875,13.609375
872,0,20.09,08:52:02.437500,13.625
873,0,18.13,08:52:02.453125,13.640625
874,0,16.73,08:52:02.468750,13.65625
875,0,16.13,08:52:02.484375,13.671875
876,0,16.36,08:52:02.500000,13.6875
877,0,17.18,08:52:02.515625,13.703125
878,0,18.28,08:52:02.531250,13.71875
879,0,19.3,08:52:02.546875,13.734375
880,0,20.02,08:52:02.562500,13.75
881,0,20.3,08:52:02.578125,13.765625
882,0,20.13,08:52:02.593750,13.78125
883,0,19.52,08:52:02.609375,13.796875
884,0,18.47,08:52:02.625000,13.8125
885,0,16.88,08:52:02.640625,13.828125
886,0,14.63,08:52:02.656250,13.84375
887,0,11.63,08:52:02.671875,13.859375
888,0,7.86,08:52:02.687500,13.875
889,0,3.47,08:52:02.703125,13.890625
890,0,-1.23,08:52:02.718750,13.90625
891,0,-5.84,08:52:02.734375,13.921875
892,0,-9.98,08:52:02.750000,13.9375
893,0,-13.42,08:52:02.765625,13.953125
894,0,-16.21,08:52:02.781250,13.96875
895,0,-18.68,08:52:02.796875,13.984375
896,0,-21.37,08:52:02.812500,14.0
897,0,-24.83,08:52:02.828125,14.015625
898,0,-29.42,08:52:02.843750,14.03125
899,0,-35.09,08:52:02.859375,14.046875
900,0,-41.27,08:52:02.875000,14.0625
901,0,-46.97,08:52:02.890625,14.078125
902,0,-50.88,08:52:02.906250,14.09375
903,0,-51.79,08:52:02.921875,14.109375
904,0,-48.87,08:52:02.937500,14.125
905,0,-42.06,08:52:02.953125,14.140625
906,0,-32.07,08:52:02.968750,14.15625
907,0,-20.26,08:52:02.984375,14.171875
908,0,-8.24,08:52:03,14.1875
909,0,2.61,08:52:03.015625,14.203125
910,0,11.44,08:52:03.031250,14.21875
911,0,18.01,08:52:03.046875,14.234375
912,0,22.5,08:52:03.062500,14.25
913,0,25.26,08:52:03.078125,14.265625
914,0,26.56,08:52:03.093750,14.28125
915,0,26.59,08:52:03.109375,14.296875
916,0,25.48,08:52:03.125000,14.3125
917,0,23.58,08:52:03.140625,14.328125
918,0,21.37,08:52:03.156250,14.34375
919,0,19.46,08:52:03.171875,14.359375
920,0,18.36,08:52:03.187500,14.375
921,0,18.31,08:52:03.203125,14.390625
922,0,19.21,08:52:03.218750,14.40625
923,0,20.67,08:52:03.234375,14.421875
924,0,22.22,08:52:03.250000,14.4375
925,0,23.42,08:52:03.265625,14.453125
926,0,24.01,08:52:03.281250,14.46875
927,0,23.94,08:52:03.296875,14.484375
928,0,23.29,08:52:03.312500,14.5
929,0,22.22,08:52:03.328125,14.515625
930,0,20.8,08:52:03.343750,14.53125
931,0,19.05,08:52:03.359375,14.546875
932,0,16.89,08:52:03.375000,14.5625
933,0,14.21,08:52:03.390625,14.578125
934,0,10.97,08:52:03.406250,14.59375
935,0,7.25,08:52:03.421875,14.609375
936,0,3.25,08:52:03.437500,14.625
937,0,-0.77,08:52:03.453125,14.640625
938,0,-4.59,08:52:03.468750,14.65625
939,0,-8.09,08:52:03.484375,14.671875
940,0,-11.27,08:52:03.500000,14.6875
941,0,-14.26,08:52:03.515625,14.703125
942,0,-17.21,08:52:03.531250,14.71875
943,0,-20.32,08:52:03.546875,14.734375
944,0,-23.8,08:52:03.562500,14.75
945,0,-27.86,08:52:03.578125,14.765625
946,0,-32.63,08:52:03.593750,14.78125
947,0,-37.97,08:52:03.609375,14.796875
948,0,-43.32,08:52:03.625000,14.8125
949,0,-47.7,08:52:03.640625,14.828125
950,0,-49.87,08:52:03.656250,14.84375
951,0,-48.77,08:52:03.671875,14.859375
952,0,-43.91,08:52:03.687500,14.875
953,0,-35.57,08:52:03.703125,14.890625
954,0,-24.81,08:52:03.718750,14.90625
955,0,-13.05,08:52:03.734375,14.921875
956,0,-1.7,08:52:03.750000,14.9375
957,0,8.27,08:52:03.765625,14.953125
958,0,16.38,08:52:03.781250,14.96875
959,0,22.59,08:52:03.796875,14.984375
960,0,27.03,08:52:03.812500,15.0
961,0,29.86,08:52:03.828125,15.015625
962,0,31.22,08:52:03.843750,15.03125
963,0,31.26,08:52:03.859375,15.046875
964,0,30.29,08:52:03.875000,15.0625
965,0,28.77,08:52:03.890625,15.078125
966,0,27.25,08:52:03.906250,15.09375
967,0,26.21,08:52:03.921875,15.109375
968,0,25.97,08:52:03.937500,15.125
969,0,26.58,08:52:03.953125,15.140625
970,0,27.88,08:52:03.968750,15.15625
971,0,29.52,08:52:03.984375,15.171875
972,0,31.1,08:52:04,15.1875
973,0,32.28,08:52:04.015625,15.203125
974,0,32.79,08:52:04.031250,15.21875
975,0,32.47,08:52:04.046875,15.234375
976,0,31.32,08:52:04.062500,15.25
977,0,29.42,08:52:04.078125,15.265625
978,0,26.92,08:52:04.093750,15.28125
979,0,24.02,08:52:04.109375,15.296875
980,0,20.9,08:52:04.125000,15.3125
981,0,17.71,08:52:04.140625,15.328125
982,0,14.56,08:52:04.156250,15.34375
983,0,11.5,08:52:04.171875,15.359375
984,0,8.51,08:52:04.187500,15.375
985,0,5.52,08:52:04.203125,15.390625
986,0,2.44,08:52:04.218750,15.40625
987,0,-0.82,08:52:04.234375,15.421875
988,0,-4.24,08:52:04.250000,15.4375
989,0,-7.7,08:52:04.265625,15.453125
990,0,-10.99,08:52:04.281250,15.46875
991,0,-13.9,08:52:04.296875,15.484375
992,0,-16.43,08:52:04.312500,15.5
993,0,-18.68,08:52:04.328125,15.515625
994,0,-21.04,08:52:04.343750,15.53125
995,0,-23.94,08:52:04.359375,15.546875
996,0,-27.8,08:52:04.375000,15.5625
997,0,-32.83,08:52:04.390625,15.578125
998,0,-38.9,08:52:04.406250,15.59375
999,0,-45.52,08:52:04.421875,15.609375
1000,0,-51.76,08:52:04.437500,15.625
1001,0,-56.44,08:52:04.453125,15.640625
1002,0,-58.28,08:52:04.468750,15.65625
1003,0,-56.32,08:52:04.484375,15.671875
1004,0,-50.17,08:52:04.500000,15.6875
1005,0,-40.25,08:52:04.515625,15.703125
1006,0,-27.73,08:52:04.531250,15.71875
1007,0,-14.22,08:52:04.546875,15.734375
1008,0,-1.32,08:52:04.562500,15.75
1009,0,9.83,08:52:04.578125,15.765625
1010,0,18.71,08:52:04.593750,15.78125
1011,0,25.34,08:52:04.609375,15.796875
1012,0,30.06,08:52:04.625000,15.8125
1013,0,33.19,08:52:04.640625,15.828125
1014,0,34.96,08:52:04.656250,15.84375
1015,0,35.54,08:52:04.671875,15.859375
1016,0,35.2,08:52:04.687500,15.875
1017,0,34.37,08:52:04.703125,15.890625
1018,0,33.57,08:52:04.718750,15.90625
1019,0,33.14,08:52:04.734375,15.921875
1020,0,33.13,08:52:04.750000,15.9375
1021,0,33.27,08:52:04.765625,15.953125
1022,0,33.18,08:52:04.781250,15.96875
1023,0,32.6,08:52:04.796875,15.984375
1024,0,31.59,08:52:04.812500,16.0
1025,0,30.41,08:52:04.828125,16.015625
1026,0,29.43,08:52:04.843750,16.03125
1027,0,28.76,08:52:04.859375,16.046875
1028,0,28.25,08:52:04.875000,16.0625
1029,0,27.49,08:52:04.890625,16.078125
1030,0,26.07,08:52:04.906250,16.09375
1031,0,23.77,08:52:04.921875,16.109375
1032,0,20.66,08:52:04.937500,16.125
1033,0,17.01,08:52:04.953125,16.140625
1034,0,13.17,08:52:04.968750,16.15625
1035,0,9.44,08:52:04.984375,16.171875
1036,0,5.99,08:52:05,16.1875
1037,0,2.87,08:52:05.015625,16.203125
1038,0,0.08,08:52:05.031250,16.21875
1039,0,-2.49,08:52:05.046875,16.234375
1040,0,-4.99,08:52:05.062500,16.25
1041,0,-7.56,08:52:05.078125,16.265625
1042,0,-10.28,08:52:05.093750,16.28125
1043,0,-13.13,08:52:05.109375,16.296875
1044,0,-15.94,08:52:05.125000,16.3125
1045,0,-18.53,08:52:05.140625,16.328125
1046,0,-20.81,08:52:05.156250,16.34375
1047,0,-22.94,08:52:05.171875,16.359375
1048,0,-25.3,08:52:05.187500,16.375
1049,0,-28.4,08:52:05.203125,16.390625
1050,0,-32.68,08:52:05.218750,16.40625
1051,0,-38.18,08:52:05.234375,16.421875
1052,0,-44.44,08:52:05.250000,16.4375
1053,0,-50.42,08:52:05.265625,16.453125
1054,0,-54.72,08:52:05.281250,16.46875
1055,0,-55.95,08:52:05.296875,16.484375
1056,0,-53.14,08:52:05.312500,16.5
1057,0,-46.14,08:52:05.328125,16.515625
1058,0,-35.68,08:52:05.343750,16.53125
1059,0,-23.19,08:52:05.359375,16.546875
1060,0,-10.31,08:52:05.375000,16.5625
1061,0,1.53,08:52:05.390625,16.578125
1062,0,11.51,08:52:05.406250,16.59375
1063,0,19.36,08:52:05.421875,16.609375
1064,0,25.21,08:52:05.437500,16.625
1065,0,29.22,08:52:05.453125,16.640625
1066,0,31.53,08:52:05.468750,16.65625
1067,0,32.22,08:52:05.484375,16.671875
1068,0,31.53,08:52:05.500000,16.6875
1069,0,29.93,08:52:05.515625,16.703125
1070,0,28.07,08:52:05.531250,16.71875
1071,0,26.58,08:52:05.546875,16.734375
1072,0,25.86,08:52:05.562500,16.75
1073,0,25.97,08:52:05.578125,16.765625
1074,0,26.68,08:52:05.593750,16.78125
1075,0,27.62,08:52:05.609375,16.796875
1076,0,28.51,08:52:05.625000,16.8125
1077,0,29.15,08:52:05.640625,16.828125
1078,0,29.51,08:52:05.656250,16.84375
1079,0,29.58,08:52:05.671875,16.859375
1080,0,29.34,08:52:05.687500,16.875
1081,0,28.69,08:52:05.703125,16.890625
1082,0,27.57,08:52:05.718750,16.90625
1083,0,25.9,08:52:05.734375,16.921875
1084,0,23.73,08:52:05.750000,16.9375
1085,0,21.13,08:52:05.765625,16.953125
1086,0,18.24,08:52:05.781250,16.96875
1087,0,15.17,08:52:05.796875,16.984375
1088,0,11.99,08:52:05.812500,17.0
1089,0,8.77,08:52:05.828125,17.015625
1090,0,5.52,08:52:05.843750,17.03125
1091,0,2.3,08:52:05.859375,17.046875
1092,0,-0.91,08:52:05.875000,17.0625
1093,0,-4.13,08:52:05.890625,17.078125
1094,0,-7.39,08:52:05.906250,17.09375
1095,0,-10.69,08:52:05.921875,17.109375
1096,0,-13.96,08:52:05.937500,17.125
1097,0,-17.01,08:52:05.953125,17.140625
1098,0,-19.7,08:52:05.968750,17.15625
1099,0,-22.04,08:52:05.984375,17.171875
1100,0,-24.31,08:52:06,17.1875
1101,0,-27.06,08:52:06.015625,17.203125
1102,0,-30.85,08:52:06.031250,17.21875
1103,0,-35.97,08:52:06.046875,17.234375
1104,0,-42.06,08:52:06.062500,17.25
1105,0,-48.12,08:52:06.078125,17.265625
1106,0,-52.64,08:52:06.093750,17.28125
1107,0,-54.13,08:52:06.109375,17.296875
1108,0,-51.66,08:52:06.125000,17.3125
1109,0,-45.14,08:52:06.140625,17.328125
1110,0,-35.41,08:52:06.156250,17.34375
1111,0,-23.91,08:52:06.171875,17.359375
1112,0,-12.19,08:52:06.187500,17.375
1113,0,-1.5,08:52:06.203125,17.390625
1114,0,7.48,08:52:06.218750,17.40625
1115,0,14.55,08:52:06.234375,17.421875
1116,0,19.81,08:52:06.250000,17.4375
1117,0,23.41,08:52:06.265625,17.453125
1118,0,25.44,08:52:06.281250,17.46875
1119,0,25.99,08:52:06.296875,17.484375
1120,0,25.24,08:52:06.312500,17.5
1121,0,23.61,08:52:06.328125,17.515625
1122,0,21.74,08:52:06.343750,17.53125
1123,0,20.31,08:52:06.359375,17.546875
1124,0,19.89,08:52:06.375000,17.5625
1125,0,20.62,08:52:06.390625,17.578125
1126,0,22.26,08:52:06.406250,17.59375
1127,0,24.27,08:52:06.421875,17.609375
1128,0,26.05,08:52:06.437500,17.625
1129,0,27.2,08:52:06.453125,17.640625
1130,0,27.57,08:52:06.468750,17.65625
1131,0,27.25,08:52:06.484375,17.671875
1132,0,26.47,08:52:06.500000,17.6875
1133,0,25.38,08:52:06.515625,17.703125
1134,0,24.03,08:52:06.531250,17.71875
1135,0,22.32,08:52:06.546875,17.734375
1136,0,20.15,08:52:06.562500,17.75
1137,0,17.47,08:52:06.578125,17.765625
1138,0,14.36,08:52:06.593750,17.78125
1139,0,11.0,08:52:06.609375,17.796875
1140,0,7.54,08:52:06.625000,17.8125
1141,0,4.11,08:52:06.640625,17.828125
1142,0,0.76,08:52:06.656250,17.84375
1143,0,-2.5,08:52:06.671875,17.859375
1144,0,-5.6,08:52:06.687500,17.875
1145,0,-8.48,08:52:06.703125,17.890625
1146,0,-11.13,08:52:06.718750,17.90625
1147,0,-13.62,08:52:06.734375,17.921875
1148,0,-16.2,08:52:06.750000,17.9375
1149,0,-19.24,08:52:06.765625,17.953125
1150,0,-23.08,08:52:06.781250,17.96875
1151,0,-27.87,08:52:06.796875,17.984375
1152,0,-33.4,08:52:06.812500,18.0
1153,0,-39.04,08:52:06.828125,18.015625
1154,0,-43.81,08:52:06.843750,18.03125
1155,0,-46.54,08:52:06.859375,18.046875
1156,0,-46.23,08:52:06.875000,18.0625
1157,0,-42.31,08:52:06.890625,18.078125
1158,0,-34.9,08:52:06.906250,18.09375
1159,0,-24.84,08:52:06.921875,18.109375
1160,0,-13.53,08:52:06.937500,18.125
1161,0,-2.5,08:52:06.953125,18.140625
1162,0,6.96,08:52:06.968750,18.15625
1163,0,14.08,08:52:06.984375,18.171875
1164,0,18.66,08:52:07,18.1875
1165,0,20.91,08:52:07.015625,18.203125
1166,0,21.24,08:52:07.031250,18.21875
1167,0,20.08,08:52:07.046875,18.234375
1168,0,17.88,08:52:07.062500,18.25
1169,0,15.16,08:52:07.078125,18.265625
1170,0,12.53,08:52:07.093750,18.28125
1171,0,10.6,08:52:07.109375,18.296875
1172,0,9.77,08:52:07.125000,18.3125
1173,0,10.1,08:52:07.140625,18.328125
1174,0,11.21,08:52:07.156250,18.34375
1175,0,12.53,08:52:07.171875,18.359375
1176,0,13.48,08:52:07.187500,18.375
1177,0,13.75,08:52:07.203125,18.390625
1178,0,13.3,08:52:07.218750,18.40625
1179,0,12.32,08:52:07.234375,18.421875
1180,0,10.98,08:52:07.250000,18.4375
1181,0,9.33,08:52:07.265625,18.453125
1182,0,7.28,08:52:07.281250,18.46875
1183,0,4.67,08:52:07.296875,18.484375
1184,0,1.46,08:52:07.312500,18.5
1185,0,-2.19,08:52:07.328125,18.515625
1186,0,-5.92,08:52:07.343750,18.53125
1187,0,-9.27,08:52:07.359375,18.546875
1188,0,-11.91,08:52:07.375000,18.5625
1189,0,-13.74,08:52:07.390625,18.578125
1190,0,-15.02,08:52:07.406250,18.59375
1191,0,-16.2,08:52:07.421875,18.609375
1192,0,-17.88,08:52:07.437500,18.625
1193,0,-20.53,08:52:07.453125,18.640625
1194,0,-24.38,08:52:07.468750,18.65625
1195,0,-29.38,08:52:07.484375,18.671875
1196,0,-35.05,08:52:07.500000,18.6875
1197,0,-40.65,08:52:07.515625,18.703125
1198,0,-45.15,08:52:07.531250,18.71875
1199,0,-47.44,08:52:07.546875,18.734375
1200,0,-46.62,08:52:07.562500,18.75
1201,0,-42.24,08:52:07.578125,18.765625
1202,0,-34.55,08:52:07.593750,18.78125
1203,0,-24.46,08:52:07.609375,18.796875
1204,0,-13.32,08:52:07.625000,18.8125
1205,0,-2.54,08:52:07.640625,18.828125
1206,0,6.79,08:52:07.656250,18.84375
1207,0,14.11,08:52:07.671875,18.859375
1208,0,19.38,08:52:07.687500,18.875
1209,0,22.8,08:52:07.703125,18.890625
1210,0,24.66,08:52:07.718750,18.90625
1211,0,25.16,08:52:07.734375,18.921875
1212,0,24.49,08:52:07.750000,18.9375
1213,0,22.9,08:52:07.765625,18.953125
1214,0,20.82,08:52:07.781250,18.96875
1215,0,18.8,08:52:07.796875,18.984375
1216,0,17.35,08:52:07.812500,19.0
1217,0,16.76,08:52:07.828125,19.015625
1218,0,16.97,08:52:07.843750,19.03125
1219,0,17.67,08:52:07.859375,19.046875
1220,0,18.37,08:52:07.875000,19.0625
1221,0,18.67,08:52:07.890625,19.078125
1222,0,18.38,08:52:07.906250,19.09375
1223,0,17.51,08:52:07.921875,19.109375
1224,0,16.24,08:52:07.937500,19.125
1225,0,14.7,08:52:07.953125,19.140625
1226,0,12.86,08:52:07.968750,19.15625
1227,0,10.6,08:52:07.984375,19.171875
1228,0,7.7,08:52:08,19.1875
1229,0,4.03,08:52:08.015625,19.203125
1230,0,-0.31,08:52:08.031250,19.21875
1231,0,-4.98,08:52:08.046875,19.234375
1232,0,-9.55,08:52:08.062500,19.25
1233,0,-13.56,08:52:08.078125,19.265625
1234,0,-16.82,08:52:08.093750,19.28125
1235,0,-19.43,08:52:08.109375,19.296875
1236,0,-21.78,08:52:08.125000,19.3125
1237,0,-24.48,08:52:08.140625,19.328125
1238,0,-28.11,08:52:08.156250,19.34375
1239,0,-33.06,08:52:08.171875,19.359375
1240,0,-39.28,08:52:08.187500,19.375
1241,0,-46.15,08:52:08.203125,19.390625
1242,0,-52.57,08:52:08.218750,19.40625
1243,0,-57.11,08:52:08.234375,19.421875
1244,0,-58.39,08:52:08.250000,19.4375
1245,0,-55.55,08:52:08.265625,19.453125
1246,0,-48.52,08:52:08.281250,19.46875
1247,0,-38.14,08:52:08.296875,19.484375
1248,0,-25.88,08:52:08.312500,19.5
1249,0,-13.43,08:52:08.328125,19.515625
1250,0,-2.23,08:52:08.343750,19.53125
1251,0,6.89,08:52:08.359375,19.546875
1252,0,13.76,08:52:08.375000,19.5625
1253,0,18.68,08:52:08.390625,19.578125
1254,0,22.08,08:52:08.406250,19.59375
1255,0,24.26,08:52:08.421875,19.609375
1256,0,25.35,08:52:08.437500,19.625
1257,0,25.41,08:52:08.453125,19.640625
1258,0,24.58,08:52:08.468750,19.65625
1259,0,23.32,08:52:08.484375,19.671875
1260,0,22.17,08:52:08.500000,19.6875
1261,0,21.69,08:52:08.515625,19.703125
1262,0,22.14,08:52:08.531250,19.71875
1263,0,23.4,08:52:08.546875,19.734375
1264,0,25.02,08:52:08.562500,19.75
1265,0,26.43,08:52:08.578125,19.765625
1266,0,27.22,08:52:08.593750,19.78125
1267,0,27.2,08:52:08.609375,19.796875
1268,0,26.46,08:52:08.625000,19.8125
1269,0,25.22,08:52:08.640625,19.828125
1270,0,23.69,08:52:08.656250,19.84375
1271,0,22.0,08:52:08.671875,19.859375
1272,0,20.09,08:52:08.687500,19.875
1273,0,17.82,08:52:08.703125,19.890625
1274,0,14.98,08:52:08.718750,19.90625
1275,0,11.45,08:52:08.734375,19.921875
1276,0,7.2,08:52:08.750000,19.9375
1277,0,2.44,08:52:08.765625,19.953125
1278,0,-2.53,08:52:08.781250,19.96875
1279,0,-7.35,08:52:08.796875,19.984375
1280,0,-11.77,08:52:08.812500,20.0
1281,0,-15.72,08:52:08.828125,20.015625
1282,0,-19.36,08:52:08.843750,20.03125
1283,0,-23.04,08:52:08.859375,20.046875
1284,0,-27.18,08:52:08.875000,20.0625
1285,0,-32.13,08:52:08.890625,20.078125
1286,0,-38.11,08:52:08.906250,20.09375
1287,0,-44.99,08:52:08.921875,20.109375
1288,0,-52.21,08:52:08.937500,20.125
1289,0,-58.8,08:52:08.953125,20.140625
1290,0,-63.47,08:52:08.968750,20.15625
1291,0,-64.91,08:52:08.984375,20.171875
1292,0,-62.25,08:52:09,20.1875
1293,0,-55.29,08:52:09.015625,20.203125
1294,0,-44.68,08:52:09.031250,20.21875
1295,0,-31.75,08:52:09.046875,20.234375
1296,0,-18.12,08:52:09.062500,20.25
1297,0,-5.29,08:52:09.078125,20.265625
1298,0,5.72,08:52:09.093750,20.28125
1299,0,14.5,08:52:09.109375,20.296875
1300,0,21.13,08:52:09.125000,20.3125
1301,0,25.95,08:52:09.140625,20.328125
1302,0,29.3,08:52:09.156250,20.34375
1303,0,31.48,08:52:09.171875,20.359375
1304,0,32.72,08:52:09.187500,20.375
1305,0,33.29,08:52:09.203125,20.390625
1306,0,33.5,08:52:09.218750,20.40625
1307,0,33.7,08:52:09.234375,20.421875
1308,0,34.15,08:52:09.250000,20.4375
1309,0,34.96,08:52:09.265625,20.453125
1310,0,36.03,08:52:09.281250,20.46875
1311,0,37.13,08:52:09.296875,20.484375
1312,0,37.99,08:52:09.312500,20.5
1313,0,38.46,08:52:09.328125,20.515625
1314,0,38.52,08:52:09.343750,20.53125
1315,0,38.28,08:52:09.359375,20.546875
1316,0,37.83,08:52:09.375000,20.5625
1317,0,37.17,08:52:09.390625,20.578125
1318,0,36.16,08:52:09.406250,20.59375
1319,0,34.55,08:52:09.421875,20.609375
1320,0,32.09,08:52:09.437500,20.625
1321,0,28.7,08:52:09.453125,20.640625
1322,0,24.55,08:52:09.468750,20.65625
1323,0,20.05,08:52:09.484375,20.671875
1324,0,15.66,08:52:09.500000,20.6875
1325,0,11.73,08:52:09.515625,20.703125
1326,0,8.34,08:52:09.531250,20.71875
1327,0,5.23,08:52:09.546875,20.734375
1328,0,2.0,08:52:09.562500,20.75
1329,0,-1.7,08:52:09.578125,20.765625
1330,0,-5.94,08:52:09.593750,20.78125
1331,0,-10.52,08:52:09.609375,20.796875
1332,0,-14.99,08:52:09.625000,20.8125
1333,0,-18.96,08:52:09.640625,20.828125
1334,0,-22.27,08:52:09.656250,20.84375
1335,0,-25.09,08:52:09.671875,20.859375
1336,0,-27.85,08:52:09.687500,20.875
1337,0,-31.12,08:52:09.703125,20.890625
1338,0,-35.43,08:52:09.718750,20.90625
1339,0,-41.1,08:52:09.734375,20.921875
1340,0,-48.08,08:52:09.750000,20.9375
1341,0,-55.81,08:52:09.765625,20.953125
1342,0,-63.24,08:52:09.781250,20.96875
1343,0,-68.83,08:52:09.796875,20.984375
1344,0,-71.03,08:52:09.812500,21.0
1345,0,-68.64,08:52:09.828125,21.015625
1346,0,-61.36,08:52:09.843750,21.03125
1347,0,-49.92,08:52:09.859375,21.046875
1348,0,-35.94,08:52:09.875000,21.0625
1349,0,-21.33,08:52:09.890625,21.078125
1350,0,-7.77,08:52:09.906250,21.09375
1351,0,3.75,08:52:09.921875,21.109375
1352,0,13.01,08:52:09.937500,21.125
1353,0,20.26,08:52:09.953125,21.140625
1354,0,25.85,08:52:09.968750,21.15625
1355,0,30.03,08:52:09.984375,21.171875
1356,0,32.89,08:52:10,21.1875
1357,0,34.47,08:52:10.015625,21.203125
1358,0,34.96,08:52:10.031250,21.21875
1359,0,34.78,08:52:10.046875,21.234375
1360,0,34.41,08:52:10.062500,21.25
1361,0,34.29,08:52:10.078125,21.265625
1362,0,34.63,08:52:10.093750,21.28125
1363,0,35.38,08:52:10.109375,21.296875
1364,0,36.36,08:52:10.125000,21.3125
1365,0,37.31,08:52:10.140625,21.328125
1366,0,38.01,08:52:10.156250,21.34375
1367,0,38.37,08:52:10.171875,21.359375
1368,0,38.39,08:52:10.187500,21.375
1369,0,38.16,08:52:10.203125,21.390625
1370,0,37.75,08:52:10.218750,21.40625
1371,0,37.14,08:52:10.234375,21.421875
1372,0,36.2,08:52:10.250000,21.4375
1373,0,34.68,08:52:10.265625,21.453125
1374,0,32.42,08:52:10.281250,21.46875
1375,0,29.37,08:52:10.296875,21.484375
1376,0,25.71,08:52:10.312500,21.5
1377,0,21.79,08:52:10.328125,21.515625
1378,0,18.03,08:52:10.343750,21.53125
1379,0,14.7,08:52:10.359375,21.546875
1380,0,11.85,08:52:10.375000,21.5625
1381,0,9.25,08:52:10.390625,21.578125
1382,0,6.53,08:52:10.406250,21.59375
1383,0,3.38,08:52:10.421875,21.609375
1384,0,-0.36,08:52:10.437500,21.625
1385,0,-4.56,08:52:10.453125,21.640625
1386,0,-8.92,08:52:10.468750,21.65625
1387,0,-13.05,08:52:10.484375,21.671875
1388,0,-16.7,08:52:10.500000,21.6875
1389,0,-19.84,08:52:10.515625,21.703125
1390,0,-22.7,08:52:10.531250,21.71875
1391,0,-25.69,08:52:10.546875,21.734375
1392,0,-29.27,08:52:10.562500,21.75
1393,0,-33.87,08:52:10.578125,21.765625
1394,0,-39.73,08:52:10.593750,21.78125
1395,0,-46.75,08:52:10.609375,21.796875
1396,0,-54.42,08:52:10.625000,21.8125
1397,0,-61.69,08:52:10.640625,21.828125
1398,0,-67.12,08:52:10.656250,21.84375
1399,0,-69.18,08:52:10.671875,21.859375
1400,0,-66.75,08:52:10.687500,21.875
1401,0,-59.47,08:52:10.703125,21.890625
1402,0,-48.01,08:52:10.718750,21.90625
1403,0,-33.92,08:52:10.734375,21.921875
1404,0,-19.12,08:52:10.750000,21.9375
1405,0,-5.36,08:52:10.765625,21.953125
1406,0,6.27,08:52:10.781250,21.96875
1407,0,15.43,08:52:10.796875,21.984375
1408,0,22.32,08:52:10.812500,22.0
1409,0,27.36,08:52:10.828125,22.015625
1410,0,30.88,08:52:10.843750,22.03125
1411,0,33.03,08:52:10.859375,22.046875
1412,0,33.89,08:52:10.875000,22.0625
1413,0,33.6,08:52:10.890625,22.078125
1414,0,32.54,08:52:10.906250,22.09375
1415,0,31.27,08:52:10.921875,22.109375
1416,0,30.36,08:52:10.937500,22.125
1417,0,30.18,08:52:10.953125,22.140625
1418,0,30.74,08:52:10.968750,22.15625
1419,0,31.69,08:52:10.984375,22.171875
1420,0,32.55,08:52:11,22.1875
1421,0,32.93,08:52:11.015625,22.203125
1422,0,32.76,08:52:11.031250,22.21875
1423,0,32.26,08:52:11.046875,22.234375
1424,0,31.78,08:52:11.062500,22.25
1425,0,31.54,08:52:11.078125,22.265625
1426,0,31.42,08:52:11.093750,22.28125
1427,0,31.0,08:52:11.109375,22.296875
1428,0,29.75,08:52:11.125000,22.3125
1429,0,27.31,08:52:11.140625,22.328125
1430,0,23.73,08:52:11.156250,22.34375
1431,0,19.45,08:52:11.171875,22.359375
1432,0,15.07,08:52:11.187500,22.375
1433,0,11.13,08:52:11.203125,22.390625
1434,0,7.83,08:52:11.218750,22.40625
1435,0,5.06,08:52:11.234375,22.421875
1436,0,2.46,08:52:11.250000,22.4375
1437,0,-0.33,08:52:11.265625,22.453125
1438,0,-3.48,08:52:11.281250,22.46875
1439,0,-6.95,08:52:11.296875,22.484375
1440,0,-10.51,08:52:11.312500,22.5
1441,0,-13.91,08:52:11.328125,22.515625
1442,0,-16.92,08:52:11.343750,22.53125
1443,0,-19.54,08:52:11.359375,22.546875
1444,0,-21.93,08:52:11.375000,22.5625
1445,0,-24.35,08:52:11.390625,22.578125
1446,0,-27.13,08:52:11.406250,22.59375
1447,0,-30.58,08:52:11.421875,22.609375
1448,0,-34.9,08:52:11.437500,22.625
1449,0,-40.13,08:52:11.453125,22.640625
1450,0,-46.01,08:52:11.468750,22.65625
1451,0,-51.87,08:52:11.484375,22.671875
1452,0,-56.61,08:52:11.500000,22.6875
1453,0,-58.84,08:52:11.515625,22.703125
1454,0,-57.37,08:52:11.531250,22.71875
1455,0,-51.57,08:52:11.546875,22.734375
1456,0,-41.78,08:52:11.562500,22.75
1457,0,-29.26,08:52:11.578125,22.765625
1458,0,-15.82,08:52:11.593750,22.78125
1459,0,-3.22,08:52:11.609375,22.796875
1460,0,7.36,08:52:11.625000,22.8125
1461,0,15.49,08:52:11.640625,22.828125
1462,0,21.4,08:52:11.656250,22.84375
1463,0,25.54,08:52:11.671875,22.859375
1464,0,28.31,08:52:11.687500,22.875
1465,0,29.83,08:52:11.703125,22.890625
1466,0,30.13,08:52:11.718750,22.90625
1467,0,29.28,08:52:11.734375,22.921875
1468,0,27.64,08:52:11.750000,22.9375
1469,0,25.8,08:52:11.765625,22.953125
1470,0,24.44,08:52:11.781250,22.96875
1471,0,24.01,08:52:11.796875,22.984375
1472,0,24.6,08:52:11.812500,23.0
1473,0,25.88,08:52:11.828125,23.015625
1474,0,27.32,08:52:11.843750,23.03125
1475,0,28.46,08:52:11.859375,23.046875
1476,0,29.07,08:52:11.875000,23.0625
1477,0,29.21,08:52:11.890625,23.078125
1478,0,29.12,08:52:11.906250,23.09375
1479,0,28.92,08:52:11.921875,23.109375
1480,0,28.5,08:52:11.937500,23.125
1481,0,27.52,08:52:11.953125,23.140625
1482,0,25.63,08:52:11.968750,23.15625
1483,0,22.69,08:52:11.984375,23.171875
1484,0,18.92,08:52:12,23.1875
1485,0,14.83,08:52:12.015625,23.203125
1486,0,11.02,08:52:12.031250,23.21875
1487,0,7.87,08:52:12.046875,23.234375
1488,0,5.46,08:52:12.062500,23.25
1489,0,3.46,08:52:12.078125,23.265625
1490,0,1.42,08:52:12.093750,23.28125
1491,0,-1.09,08:52:12.109375,23.296875
1492,0,-4.3,08:52:12.125000,23.3125
1493,0,-8.06,08:52:12.140625,23.328125
1494,0,-12.06,08:52:12.156250,23.34375
1495,0,-15.85,08:52:12.171875,23.359375
1496,0,-19.09,08:52:12.187500,23.375
1497,0,-21.67,08:52:12.203125,23.390625
1498,0,-23.76,08:52:12.218750,23.40625
1499,0,-25.74,08:52:12.234375,23.421875
1500,0,-28.1,08:52:12.250000,23.4375
1501,0,-31.34,08:52:12.265625,23.453125
1502,0,-35.75,08:52:12.281250,23.46875
1503,0,-41.34,08:52:12.296875,23.484375
1504,0,-47.61,08:52:12.312500,23.5
1505,0,-53.64,08:52:12.328125,23.515625
1506,0,-58.11,08:52:12.343750,23.53125
1507,0,-59.66,08:52:12.359375,23.546875
1508,0,-57.28,08:52:12.375000,23.5625
1509,0,-50.69,08:52:12.390625,23.578125
1510,0,-40.52,08:52:12.406250,23.59375
1511,0,-28.11,08:52:12.421875,23.609375
1512,0,-15.14,08:52:12.437500,23.625
1513,0,-3.14,08:52:12.453125,23.640625
1514,0,6.85,08:52:12.468750,23.65625
1515,0,14.41,08:52:12.484375,23.671875
1516,0,19.6,08:52:12.500000,23.6875
1517,0,22.79,08:52:12.515625,23.703125
1518,0,24.39,08:52:12.531250,23.71875
1519,0,24.75,08:52:12.546875,23.734375
1520,0,24.2,08:52:12.562500,23.75
1521,0,23.07,08:52:12.578125,23.765625
1522,0,21.73,08:52:12.593750,23.78125
1523,0,20.59,08:52:12.609375,23.796875
1524,0,20.04,08:52:12.625000,23.8125
1525,0,20.31,08:52:12.640625,23.828125
1526,0,21.43,08:52:12.656250,23.84375
1527,0,23.15,08:52:12.671875,23.859375
1528,0,25.05,08:52:12.687500,23.875
1529,0,26.74,08:52:12.703125,23.890625
1530,0,27.88,08:52:12.718750,23.90625
1531,0,28.36,08:52:12.734375,23.921875
1532,0,28.15,08:52:12.750000,23.9375
1533,0,27.31,08:52:12.765625,23.953125
1534,0,25.85,08:52:12.781250,23.96875
1535,0,23.77,08:52:12.796875,23.984375
1536,0,21.13,08:52:12.812500,24.0
1537,0,18.07,08:52:12.828125,24.015625
1538,0,14.86,08:52:12.843750,24.03125
1539,0,11.75,08:52:12.859375,24.046875
1540,0,8.92,08:52:12.875000,24.0625
1541,0,6.32,08:52:12.890625,24.078125
1542,0,3.76,08:52:12.906250,24.09375
1543,0,0.96,08:52:12.921875,24.109375
1544,0,-2.23,08:52:12.937500,24.125
1545,0,-5.8,08:52:12.953125,24.140625
1546,0,-9.5,08:52:12.968750,24.15625
1547,0,-12.97,08:52:12.984375,24.171875
1548,0,-15.92,08:52:13,24.1875
1549,0,-18.26,08:52:13.015625,24.203125
1550,0,-20.22,08:52:13.031250,24.21875
1551,0,-22.27,08:52:13.046875,24.234375
1552,0,-24.98,08:52:13.062500,24.25
1553,0,-28.84,08:52:13.078125,24.265625
1554,0,-34.03,08:52:13.093750,24.28125
1555,0,-40.27,08:52:13.109375,24.296875
1556,0,-46.72,08:52:13.125000,24.3125
1557,0,-52.17,08:52:13.140625,24.328125
1558,0,-55.22,08:52:13.156250,24.34375
1559,0,-54.78,08:52:13.171875,24.359375
1560,0,-50.29,08:52:13.187500,24.375
1561,0,-42.05,08:52:13.203125,24.390625
1562,0,-31.05,08:52:13.218750,24.40625
1563,0,-18.78,08:52:13.234375,24.421875
1564,0,-6.77,08:52:13.250000,24.4375
1565,0,3.74,08:52:13.265625,24.453125
1566,0,12.11,08:52:13.281250,24.46875
1567,0,18.17,08:52:13.296875,24.484375
1568,0,22.17,08:52:13.312500,24.5
1569,0,24.47,08:52:13.328125,24.515625
1570,0,25.39,08:52:13.343750,24.53125
1571,0,25.15,08:52:13.359375,24.546875
1572,0,23.96,08:52:13.375000,24.5625
1573,0,22.13,08:52:13.390625,24.578125
1574,0,20.13,08:52:13.406250,24.59375
1575,0,18.52,08:52:13.421875,24.609375
1576,0,17.83,08:52:13.437500,24.625
1577,0,18.27,08:52:13.453125,24.640625
1578,0,19.65,08:52:13.468750,24.65625
1579,0,21.41,08:52:13.484375,24.671875
1580,0,22.85,08:52:13.500000,24.6875
1581,0,23.42,08:52:13.515625,24.703125
1582,0,22.94,08:52:13.531250,24.71875
1583,0,21.65,08:52:13.546875,24.734375
1584,0,20.0,08:52:13.562500,24.75
1585,0,18.4,08:52:13.578125,24.765625
1586,0,16.95,08:52:13.593750,24.78125
1587,0,15.43,08:52:13.609375,24.796875
1588,0,13.44,08:52:13.625000,24.8125
1589,0,10.64,08:52:13.640625,24.828125
1590,0,7.04,08:52:13.656250,24.84375
1591,0,2.99,08:52:13.671875,24.859375
1592,0,-0.99,08:52:13.687500,24.875
1593,0,-4.43,08:52:13.703125,24.890625
1594,0,-7.17,08:52:13.718750,24.90625
1595,0,-9.38,08:52:13.734375,24.921875
1596,0,-11.45,08:52:13.750000,24.9375
1597,0,-13.83,08:52:13.765625,24.953125
1598,0,-16.79,08:52:13.781250,24.96875
1599,0,-20.44,08:52:13.796875,24.984375
1600,0,-24.73,08:52:13.812500,25.0
1601,0,-29.54,08:52:13.828125,25.015625
1602,0,-34.6,08:52:13.843750,25.03125
1603,0,-39.46,08:52:13.859375,25.046875
1604,0,-43.4,08:52:13.875000,25.0625
1605,0,-45.49,08:52:13.890625,25.078125
1606,0,-44.83,08:52:13.906250,25.09375
1607,0,-40.88,08:52:13.921875,25.109375
1608,0,-33.72,08:52:13.937500,25.125
1609,0,-24.14,08:52:13.953125,25.140625
1610,0,-13.48,08:52:13.968750,25.15625
1611,0,-3.14,08:52:13.984375,25.171875
1612,0,5.76,08:52:14,25.1875
1613,0,12.6,08:52:14.015625,25.203125
1614,0,17.32,08:52:14.031250,25.21875
1615,0,20.14,08:52:14.046875,25.234375
1616,0,21.34,08:52:14.062500,25.25
1617,0,21.12,08:52:14.078125,25.265625
1618,0,19.68,08:52:14.093750,25.28125
1619,0,17.26,08:52:14.109375,25.296875
1620,0,14.37,08:52:14.125000,25.3125
1621,0,11.62,08:52:14.140625,25.328125
1622,0,9.63,08:52:14.156250,25.34375
1623,0,8.77,08:52:14.171875,25.359375
1624,0,9.05,08:52:14.187500,25.375
1625,0,10.16,08:52:14.203125,25.390625
1626,0,11.63,08:52:14.218750,25.40625
1627,0,12.98,08:52:14.234375,25.421875
1628,0,13.93,08:52:14.250000,25.4375
1629,0,14.31,08:52:14.265625,25.453125
1630,0,14.08,08:52:14.281250,25.46875
1631,0,13.17,08:52:14.296875,25.484375
1632,0,11.56,08:52:14.312500,25.5
1633,0,9.22,08:52:14.328125,25.515625
1634,0,6.21,08:52:14.343750,25.53125
1635,0,2.68,08:52:14.359375,25.546875
1636,0,-1.11,08:52:14.375000,25.5625
1637,0,-4.88,08:52:14.390625,25.578125
1638,0,-8.4,08:52:14.406250,25.59375
1639,0,-11.55,08:52:14.421875,25.609375
1640,0,-14.46,08:52:14.437500,25.625
1641,0,-17.45,08:52:14.453125,25.640625
1642,0,-20.93,08:52:14.468750,25.65625
1643,0,-25.27,08:52:14.484375,25.671875
1644,0,-30.53,08:52:14.500000,25.6875
1645,0,-36.35,08:52:14.515625,25.703125
1646,0,-41.9,08:52:14.531250,25.71875
1647,0,-46.06,08:52:14.546875,25.734375
1648,0,-47.66,08:52:14.562500,25.75
1649,0,-45.85,08:52:14.578125,25.765625
1650,0,-40.36,08:52:14.593750,25.78125
1651,0,-31.66,08:52:14.609375,25.796875
1652,0,-20.89,08:52:14.625000,25.8125
1653,0,-9.51,08:52:14.640625,25.828125
1654,0,1.04,08:52:14.656250,25.84375
1655,0,9.72,08:52:14.671875,25.859375
1656,0,16.08,08:52:14.687500,25.875
1657,0,20.13,08:52:14.703125,25.890625
1658,0,22.19,08:52:14.718750,25.90625
1659,0,22.57,08:52:14.734375,25.921875
1660,0,21.51,08:52:14.750000,25.9375
1661,0,19.19,08:52:14.765625,25.953125
1662,0,15.89,08:52:14.781250,25.96875
1663,0,12.11,08:52:14.796875,25.984375
1664,0,8.49,08:52:14.812500,26.0
1665,0,5.74,08:52:14.828125,26.015625
1666,0,4.31,08:52:14.843750,26.03125
1667,0,4.34,08:52:14.859375,26.046875
1668,0,5.59,08:52:14.875000,26.0625
1669,0,7.52,08:52:14.890625,26.078125
1670,0,9.53,08:52:14.906250,26.09375
1671,0,10.97,08:52:14.921875,26.109375
1672,0,11.38,08:52:14.937500,26.125
1673,0,10.52,08:52:14.953125,26.140625
1674,0,8.4,08:52:14.968750,26.15625
1675,0,5.28,08:52:14.984375,26.171875
1676,0,1.59,08:52:15,26.1875
1677,0,-2.3,08:52:15.015625,26.203125
1678,0,-6.13,08:52:15.031250,26.21875
1679,0,-9.9,08:52:15.046875,26.234375
1680,0,-13.79,08:52:15.062500,26.25
1681,0,-18.09,08:52:15.078125,26.265625
1682,0,-23.07,08:52:15.093750,26.28125
1683,0,-28.87,08:52:15.109375,26.296875
1684,0,-35.38,08:52:15.125000,26.3125
1685,0,-42.12,08:52:15.140625,26.328125
1686,0,-48.24,08:52:15.156250,26.34375
1687,0,-52.6,08:52:15.171875,26.359375
1688,0,-53.98,08:52:15.187500,26.375
1689,0,-51.52,08:52:15.203125,26.390625
1690,0,-44.97,08:52:15.218750,26.40625
1691,0,-34.95,08:52:15.234375,26.421875
1692,0,-22.69,08:52:15.250000,26.4375
1693,0,-9.81,08:52:15.265625,26.453125
1694,0,2.23,08:52:15.281250,26.46875
1695,0,12.38,08:52:15.296875,26.484375
1696,0,20.13,08:52:15.312500,26.5
1697,0,25.38,08:52:15.328125,26.515625
1698,0,28.23,08:52:15.343750,26.53125
1699,0,28.82,08:52:15.359375,26.546875
1700,0,27.38,08:52:15.375000,26.5625
1701,0,24.28,08:52:15.390625,26.578125
1702,0,20.1,08:52:15.406250,26.59375
1703,0,15.65,08:52:15.421875,26.609375
1704,0,11.78,08:52:15.437500,26.625
1705,0,9.22,08:52:15.453125,26.640625
1706,0,8.32,08:52:15.468750,26.65625
1707,0,9.0,08:52:15.484375,26.671875
1708,0,10.78,08:52:15.500000,26.6875
1709,0,12.93,08:52:15.515625,26.703125
1710,0,14.7,08:52:15.531250,26.71875
1711,0,15.57,08:52:15.546875,26.734375
1712,0,15.31,08:52:15.562500,26.75
1713,0,14.0,08:52:15.578125,26.765625
1714,0,11.92,08:52:15.593750,26.78125
1715,0,9.35,08:52:15.609375,26.796875
1716,0,6.52,08:52:15.625000,26.8125
1717,0,3.43,08:52:15.640625,26.828125
1718,0,-0.09,08:52:15.656250,26.84375
1719,0,-4.33,08:52:15.671875,26.859375
1720,0,-9.55,08:52:15.687500,26.875
1721,0,-15.91,08:52:15.703125,26.890625
1722,0,-23.23,08:52:15.718750,26.90625
1723,0,-30.91,08:52:15.734375,26.921875
1724,0,-37.96,08:52:15.750000,26.9375
1725,0,-43.1,08:52:15.765625,26.953125
1726,0,-45.09,08:52:15.781250,26.96875
1727,0,-43.09,08:52:15.796875,26.984375
1728,0,-36.91,08:52:15.812500,27.0
1729,0,-27.18,08:52:15.828125,27.015625
1730,0,-15.13,08:52:15.843750,27.03125
1731,0,-2.34,08:52:15.859375,27.046875
1732,0,9.75,08:52:15.875000,27.0625
1733,0,20.06,08:52:15.890625,27.078125
1734,0,28.01,08:52:15.906250,27.09375
1735,0,33.37,08:52:15.921875,27.109375
1736,0,36.18,08:52:15.937500,27.125
1737,0,36.58,08:52:15.953125,27.140625
1738,0,34.81,08:52:15.968750,27.15625
1739,0,31.28,08:52:15.984375,27.171875
1740,0,26.64,08:52:16,27.1875
1741,0,21.75,08:52:16.015625,27.203125
1742,0,17.47,08:52:16.031250,27.21875
1743,0,14.48,08:52:16.046875,27.234375
1744,0,13.05,08:52:16.062500,27.25
1745,0,12.96,08:52:16.078125,27.265625
1746,0,13.63,08:52:16.093750,27.28125
1747,0,14.36,08:52:16.109375,27.296875
1748,0,14.53,08:52:16.125000,27.3125
1749,0,13.81,08:52:16.140625,27.328125
1750,0,12.19,08:52:16.156250,27.34375
1751,0,9.9,08:52:16.171875,27.359375
1752,0,7.24,08:52:16.187500,27.375
1753,0,4.46,08:52:16.203125,27.390625
1754,0,1.66,08:52:16.218750,27.40625
1755,0,-1.29,08:52:16.234375,27.421875
1756,0,-4.63,08:52:16.250000,27.4375
1757,0,-8.65,08:52:16.265625,27.453125
1758,0,-13.61,08:52:16.281250,27.46875
1759,0,-19.61,08:52:16.296875,27.484375
1760,0,-26.5,08:52:16.312500,27.5
1761,0,-33.85,08:52:16.328125,27.515625
1762,0,-40.84,08:52:16.343750,27.53125
1763,0,-46.36,08:52:16.359375,27.546875
1764,0,-49.19,08:52:16.375000,27.5625
1765,0,-48.29,08:52:16.390625,27.578125
1766,0,-43.16,08:52:16.406250,27.59375
1767,0,-34.02,08:52:16.421875,27.609375
1768,0,-21.9,08:52:16.437500,27.625
1769,0,-8.37,08:52:16.453125,27.640625
1770,0,4.86,08:52:16.468750,27.65625
1771,0,16.4,08:52:16.484375,27.671875
1772,0,25.5,08:52:16.500000,27.6875
1773,0,32.0,08:52:16.515625,27.703125
1774,0,36.19,08:52:16.531250,27.71875
1775,0,38.46,08:52:16.546875,27.734375
1776,0,39.16,08:52:16.562500,27.75
1777,0,38.52,08:52:16.578125,27.765625
1778,0,36.82,08:52:16.593750,27.78125
1779,0,34.47,08:52:16.609375,27.796875
1780,0,32.03,08:52:16.625000,27.8125
1781,0,30.08,08:52:16.640625,27.828125
1782,0,28.94,08:52:16.656250,27.84375
1783,0,28.66,08:52:16.671875,27.859375
1784,0,28.87,08:52:16.687500,27.875
1785,0,29.1,08:52:16.703125,27.890625
1786,0,28.91,08:52:16.718750,27.90625
1787,0,28.12,08:52:16.734375,27.921875
1788,0,26.72,08:52:16.750000,27.9375
1789,0,24.78,08:52:16.765625,27.953125
1790,0,22.32,08:52:16.781250,27.96875
1791,0,19.23,08:52:16.796875,27.984375
1792,0,15.33,08:52:16.812500,28.0
1793,0,10.55,08:52:16.828125,28.015625
1794,0,5.02,08:52:16.843750,28.03125
1795,0,-0.91,08:52:16.859375,28.046875
1796,0,-6.83,08:52:16.875000,28.0625
1797,0,-12.38,08:52:16.890625,28.078125
1798,0,-17.55,08:52:16.906250,28.09375
1799,0,-22.6,08:52:16.921875,28.109375
1800,0,-28.02,08:52:16.937500,28.125
1801,0,-34.31,08:52:16.953125,28.140625
1802,0,-41.65,08:52:16.968750,28.15625
1803,0,-49.69,08:52:16.984375,28.171875
1804,0,-57.42,08:52:17,28.1875
1805,0,-63.29,08:52:17.015625,28.203125
1806,0,-65.63,08:52:17.031250,28.21875
1807,0,-63.12,08:52:17.046875,28.234375
1808,0,-55.3,08:52:17.062500,28.25
1809,0,-42.78,08:52:17.078125,28.265625
1810,0,-27.13,08:52:17.093750,28.28125
1811,0,-10.42,08:52:17.109375,28.296875
1812,0,5.39,08:52:17.125000,28.3125
1813,0,18.93,08:52:17.140625,28.328125
1814,0,29.59,08:52:17.156250,28.34375
1815,0,37.48,08:52:17.171875,28.359375
1816,0,43.01,08:52:17.187500,28.375
1817,0,46.66,08:52:17.203125,28.390625
1818,0,48.72,08:52:17.218750,28.40625
1819,0,49.36,08:52:17.234375,28.421875
1820,0,48.8,08:52:17.250000,28.4375
1821,0,47.35,08:52:17.265625,28.453125
1822,0,45.5,08:52:17.281250,28.46875
1823,0,43.81,08:52:17.296875,28.484375
1824,0,42.74,08:52:17.312500,28.5
1825,0,42.54,08:52:17.328125,28.515625
1826,0,43.17,08:52:17.343750,28.53125
1827,0,44.39,08:52:17.359375,28.546875
1828,0,45.82,08:52:17.375000,28.5625
1829,0,47.08,08:52:17.390625,28.578125
1830,0,47.93,08:52:17.406250,28.59375
1831,0,48.22,08:52:17.421875,28.609375
1832,0,47.96,08:52:17.437500,28.625
1833,0,47.21,08:52:17.453125,28.640625
1834,0,46.01,08:52:17.468750,28.65625
1835,0,44.28,08:52:17.484375,28.671875
1836,0,41.87,08:52:17.500000,28.6875
1837,0,38.58,08:52:17.515625,28.703125
1838,0,34.27,08:52:17.531250,28.71875
1839,0,28.99,08:52:17.546875,28.734375
1840,0,22.98,08:52:17.562500,28.75
1841,0,16.64,08:52:17.578125,28.765625
1842,0,10.37,08:52:17.593750,28.78125
1843,0,4.47,08:52:17.609375,28.796875
1844,0,-0.98,08:52:17.625000,28.8125
1845,0,-6.03,08:52:17.640625,28.828125
1846,0,-10.85,08:52:17.656250,28.84375
1847,0,-15.62,08:52:17.671875,28.859375
1848,0,-20.58,08:52:17.687500,28.875
1849,0,-26.01,08:52:17.703125,28.890625
1850,0,-32.22,08:52:17.718750,28.90625
1851,0,-39.5,08:52:17.734375,28.921875
1852,0,-47.79,08:52:17.750000,28.9375
1853,0,-56.47,08:52:17.765625,28.953125
1854,0,-64.31,08:52:17.781250,28.96875
1855,0,-69.63,08:52:17.796875,28.984375
1856,0,-70.82,08:52:17.812500,29.0
1857,0,-66.94,08:52:17.828125,29.015625
1858,0,-58.09,08:52:17.843750,29.03125
1859,0,-45.43,08:52:17.859375,29.046875
1860,0,-30.85,08:52:17.875000,29.0625
1861,0,-16.28,08:52:17.890625,29.078125
1862,0,-3.21,08:52:17.906250,29.09375
1863,0,7.64,08:52:17.921875,29.109375
1864,0,16.25,08:52:17.937500,29.125
1865,0,22.97,08:52:17.953125,29.140625
1866,0,28.18,08:52:17.968750,29.15625
1867,0,32.17,08:52:17.984375,29.171875
1868,0,35.07,08:52:18,29.1875
1869,0,36.95,08:52:18.015625,29.203125
1870,0,37.96,08:52:18.031250,29.21875
1871,0,38.33,08:52:18.046875,29.234375
1872,0,38.3,08:52:18.062500,29.25
1873,0,38.11,08:52:18.078125,29.265625
1874,0,37.92,08:52:18.093750,29.28125
1875,0,37.78,08:52:18.109375,29.296875
1876,0,37.7,08:52:18.125000,29.3125
1877,0,37.61,08:52:18.140625,29.328125
1878,0,37.42,08:52:18.156250,29.34375
1879,0,37.06,08:52:18.171875,29.359375
1880,0,36.49,08:52:18.187500,29.375
1881,0,35.67,08:52:18.203125,29.390625
1882,0,34.57,08:52:18.218750,29.40625
1883,0,33.1,08:52:18.234375,29.421875
1884,0,31.12,08:52:18.250000,29.4375
1885,0,28.52,08:52:18.265625,29.453125
1886,0,25.29,08:52:18.281250,29.46875
1887,0,21.54,08:52:18.296875,29.484375
1888,0,17.55,08:52:18.312500,29.5
1889,0,13.59,08:52:18.328125,29.515625
1890,0,9.91,08:52:18.343750,29.53125
1891,0,6.51,08:52:18.359375,29.546875
1892,0,3.24,08:52:18.375000,29.5625
1893,0,-0.11,08:52:18.390625,29.578125
1894,0,-3.7,08:52:18.406250,29.59375
1895,0,-7.48,08:52:18.421875,29.609375
1896,0,-11.27,08:52:18.437500,29.625
1897,0,-14.79,08:52:18.453125,29.640625
1898,0,-17.89,08:52:18.468750,29.65625
1899,0,-20.56,08:52:18.484375,29.671875
1900,0,-23.08,08:52:18.500000,29.6875
1901,0,-25.84,08:52:18.515625,29.703125
1902,0,-29.32,08:52:18.531250,29.71875
1903,0,-33.78,08:52:18.546875,29.734375
1904,0,-39.17,08:52:18.562500,29.75
1905,0,-44.96,08:52:18.578125,29.765625
1906,0,-50.18,08:52:18.593750,29.78125
1907,0,-53.61,08:52:18.609375,29.796875
1908,0,-54.08,08:52:18.625000,29.8125
1909,0,-50.89,08:52:18.640625,29.828125
1910,0,-44.04,08:52:18.656250,29.84375
1911,0,-34.31,08:52:18.671875,29.859375
1912,0,-22.96,08:52:18.687500,29.875
1913,0,-11.44,08:52:18.703125,29.890625
1914,0,-0.93,08:52:18.718750,29.90625
1915,0,7.9,08:52:18.734375,29.921875
1916,0,14.86,08:52:18.750000,29.9375
1917,0,20.19,08:52:18.765625,29.953125
1918,0,24.23,08:52:18.781250,29.96875
1919,0,27.28,08:52:18.796875,29.984375
1920,0,29.46,08:52:18.812500,30.0
1921,0,30.76,08:52:18.828125,30.015625
1922,0,31.18,08:52:18.843750,30.03125
1923,0,30.81,08:52:18.859375,30.046875
1924,0,29.9,08:52:18.875000,30.0625
1925,0,28.82,08:52:18.890625,30.078125
1926,0,27.92,08:52:18.906250,30.09375
1927,0,27.41,08:52:18.921875,30.109375
1928,0,27.27,08:52:18.937500,30.125
1929,0,27.28,08:52:18.953125,30.140625
1930,0,27.16,08:52:18.968750,30.15625
1931,0,26.74,08:52:18.984375,30.171875
1932,0,25.99,08:52:19,30.1875
1933,0,25.05,08:52:19.015625,30.203125
1934,0,24.01,08:52:19.031250,30.21875
1935,0,22.93,08:52:19.046875,30.234375
1936,0,21.63,08:52:19.062500,30.25
1937,0,19.88,08:52:19.078125,30.265625
1938,0,17.47,08:52:19.093750,30.28125
1939,0,14.41,08:52:19.109375,30.296875
1940,0,10.96,08:52:19.125000,30.3125
1941,0,7.53,08:52:19.140625,30.328125
1942,0,4.53,08:52:19.156250,30.34375
1943,0,2.16,08:52:19.171875,30.359375
1944,0,0.35,08:52:19.187500,30.375
1945,0,-1.23,08:52:19.203125,30.390625
1946,0,-2.96,08:52:19.218750,30.40625
1947,0,-5.09,08:52:19.234375,30.421875
1948,0,-7.67,08:52:19.250000,30.4375
1949,0,-10.53,08:52:19.265625,30.453125
1950,0,-13.43,08:52:19.281250,30.46875
1951,0,-16.17,08:52:19.296875,30.484375
1952,0,-18.64,08:52:19.312500,30.5
1953,0,-20.87,08:52:19.328125,30.515625
1954,0,-22.93,08:52:19.343750,30.53125
1955,0,-24.94,08:52:19.359375,30.546875
1956,0,-27.07,08:52:19.375000,30.5625
1957,0,-29.55,08:52:19.390625,30.578125
1958,0,-32.62,08:52:19.406250,30.59375
1959,0,-36.45,08:52:19.421875,30.609375
1960,0,-40.95,08:52:19.437500,30.625
1961,0,-45.62,08:52:19.453125,30.640625
1962,0,-49.48,08:52:19.468750,30.65625
1963,0,-51.35,08:52:19.484375,30.671875
1964,0,-50.19,08:52:19.500000,30.6875
1965,0,-45.56,08:52:19.515625,30.703125
1966,0,-37.79,08:52:19.531250,30.71875
1967,0,-27.96,08:52:19.546875,30.734375
1968,0,-17.52,08:52:19.562500,30.75
1969,0,-7.8,08:52:19.578125,30.765625
1970,0,0.35,08:52:19.593750,30.78125
1971,0,6.67,08:52:19.609375,30.796875
1972,0,11.33,08:52:19.625000,30.8125
1973,0,14.64,08:52:19.640625,30.828125
1974,0,16.86,08:52:19.656250,30.84375
1975,0,18.1,08:52:19.671875,30.859375
1976,0,18.41,08:52:19.687500,30.875
1977,0,17.91,08:52:19.703125,30.890625
1978,0,16.89,08:52:19.718750,30.90625
1979,0,15.71,08:52:19.734375,30.921875
1980,0,14.72,08:52:19.750000,30.9375
1981,0,14.14,08:52:19.765625,30.953125
1982,0,14.01,08:52:19.781250,30.96875
1983,0,14.21,08:52:19.796875,30.984375
1984,0,14.53,08:52:19.812500,31.0
1985,0,14.8,08:52:19.828125,31.015625
1986,0,14.9,08:52:19.843750,31.03125
1987,0,14.75,08:52:19.859375,31.046875
1988,0,14.35,08:52:19.875000,31.0625
1989,0,13.71,08:52:19.890625,31.078125
1990,0,12.84,08:52:19.906250,31.09375
1991,0,11.72,08:52:19.921875,31.109375
1992,0,10.34,08:52:19.937500,31.125
1993,0,8.65,08:52:19.953125,31.140625
1994,0,6.66,08:52:19.968750,31.15625
1995,0,4.4,08:52:19.984375,31.171875
1996,0,1.92,08:52:20,31.1875
1997,0,-0.66,08:52:20.015625,31.203125
1998,0,-3.08,08:52:20.031250,31.21875
1999,0,-5.0,08:52:20.046875,31.234375
2000,0,-6.09,08:52:20.062500,31.25
2001,0,-6.16,08:52:20.078125,31.265625
2002,0,-5.33,08:52:20.093750,31.28125
2003,0,-4.06,08:52:20.109375,31.296875
2004,0,-2.95,08:52:20.125000,31.3125
2005,0,-2.56,08:52:20.140625,31.328125
2006,0,-3.1,08:52:20.156250,31.34375
2007,0,-4.45,08:52:20.171875,31.359375
2008,0,-6.24,08:52:20.187500,31.375
2009,0,-8.14,08:52:20.203125,31.390625
2010,0,-9.97,08:52:20.218750,31.40625
2011,0,-11.84,08:52:20.234375,31.421875
2012,0,-13.96,08:52:20.250000,31.4375
2013,0,-16.55,08:52:20.265625,31.453125
2014,0,-19.67,08:52:20.281250,31.46875
2015,0,-23.29,08:52:20.296875,31.484375
2016,0,-27.29,08:52:20.312500,31.5
2017,0,-31.47,08:52:20.328125,31.515625
2018,0,-35.48,08:52:20.343750,31.53125
2019,0,-38.71,08:52:20.359375,31.546875
2020,0,-40.43,08:52:20.375000,31.5625
2021,0,-39.88,08:52:20.390625,31.578125
2022,0,-36.63,08:52:20.406250,31.59375
2023,0,-30.78,08:52:20.421875,31.609375
2024,0,-23.02,08:52:20.437500,31.625
2025,0,-14.42,08:52:20.453125,31.640625
2026,0,-6.14,08:52:20.468750,31.65625
2027,0,0.91,08:52:20.484375,31.671875
2028,0,6.21,08:52:20.500000,31.6875
2029,0,9.72,08:52:20.515625,31.703125
2030,0,11.65,08:52:20.531250,31.71875
2031,0,12.3,08:52:20.546875,31.734375
2032,0,11.98,08:52:20.562500,31.75
2033,0,10.93,08:52:20.578125,31.765625
2034,0,9.4,08:52:20.593750,31.78125
2035,0,7.71,08:52:20.609375,31.796875
2036,0,6.27,08:52:20.625000,31.8125
2037,0,5.42,08:52:20.640625,31.828125
2038,0,5.37,08:52:20.656250,31.84375
2039,0,6.1,08:52:20.671875,31.859375
2040,0,7.4,08:52:20.687500,31.875
2041,0,8.96,08:52:20.703125,31.890625
2042,0,10.47,08:52:20.718750,31.90625
2043,0,11.71,08:52:20.734375,31.921875
2044,0,12.52,08:52:20.750000,31.9375
2045,0,12.82,08:52:20.765625,31.953125
2046,0,12.58,08:52:20.781250,31.96875
2047,0,11.81,08:52:20.796875,31.984375
2048,0,10.65,08:52:20.812500,32.0
2049,0,9.26,08:52:20.828125,32.015625
2050,0,7.87,08:52:20.843750,32.03125
2051,0,6.58,08:52:20.859375,32.046875
2052,0,5.4,08:52:20.875000,32.0625
2053,0,4.2,08:52:20.890625,32.078125
2054,0,2.82,08:52:20.906250,32.09375
2055,0,1.22,08:52:20.921875,32.109375
2056,0,-0.52,08:52:20.937500,32.125
2057,0,-2.23,08:52:20.953125,32.140625
2058,0,-3.77,08:52:20.968750,32.15625
2059,0,-5.12,08:52:20.984375,32.171875
2060,0,-6.45,08:52:21,32.1875
2061,0,-7.96,08:52:21.015625,32.203125
2062,0,-9.79,08:52:21.031250,32.21875
2063,0,-11.85,08:52:21.046875,32.234375
2064,0,-13.86,08:52:21.062500,32.25
2065,0,-15.5,08:52:21.078125,32.265625
2066,0,-16.6,08:52:21.093750,32.28125
2067,0,-17.29,08:52:21.109375,32.296875
2068,0,-17.92,08:52:21.125000,32.3125
2069,0,-18.92,08:52:21.140625,32.328125
2070,0,-20.6,08:52:21.156250,32.34375
2071,0,-23.04,08:52:21.171875,32.359375
2072,0,-26.07,08:52:21.187500,32.375
2073,0,-29.43,08:52:21.203125,32.390625
2074,0,-32.7,08:52:21.218750,32.40625
2075,0,-35.39,08:52:21.234375,32.421875
2076,0,-36.89,08:52:21.250000,32.4375
2077,0,-36.57,08:52:21.265625,32.453125
2078,0,-33.97,08:52:21.281250,32.46875
2079,0,-29.04,08:52:21.296875,32.484375
2080,0,-22.23,08:52:21.312500,32.5
2081,0,-14.48,08:52:21.328125,32.515625
2082,0,-6.86,08:52:21.343750,32.53125
2083,0,-0.28,08:52:21.359375,32.546875
2084,0,4.77,08:52:21.375000,32.5625
2085,0,8.28,08:52:21.390625,32.578125
2086,0,10.46,08:52:21.406250,32.59375
2087,0,11.61,08:52:21.421875,32.609375
2088,0,11.9,08:52:21.437500,32.625
2089,0,11.44,08:52:21.453125,32.640625
2090,0,10.42,08:52:21.468750,32.65625
2091,0,9.14,08:52:21.484375,32.671875
2092,0,8.02,08:52:21.500000,32.6875
2093,0,7.48,08:52:21.515625,32.703125
2094,0,7.71,08:52:21.531250,32.71875
2095,0,8.65,08:52:21.546875,32.734375
2096,0,9.94,08:52:21.562500,32.75
2097,0,11.23,08:52:21.578125,32.765625
2098,0,12.24,08:52:21.593750,32.78125
2099,0,12.88,08:52:21.609375,32.796875
2100,0,13.18,08:52:21.625000,32.8125
2101,0,13.27,08:52:21.640625,32.828125
2102,0,13.19,08:52:21.656250,32.84375
2103,0,12.88,08:52:21.671875,32.859375
2104,0,12.28,08:52:21.687500,32.875
2105,0,11.3,08:52:21.703125,32.890625
2106,0,9.98,08:52:21.718750,32.90625
2107,0,8.41,08:52:21.734375,32.921875
2108,0,6.71,08:52:21.750000,32.9375
2109,0,4.93,08:52:21.765625,32.953125
2110,0,3.07,08:52:21.781250,32.96875
2111,0,1.1,08:52:21.796875,32.984375
2112,0,-0.98,08:52:21.812500,33.0
2113,0,-3.09,08:52:21.828125,33.015625
2114,0,-5.11,08:52:21.843750,33.03125
2115,0,-6.98,08:52:21.859375,33.046875
2116,0,-8.72,08:52:21.875000,33.0625
2117,0,-10.44,08:52:21.890625,33.078125
2118,0,-12.21,08:52:21.906250,33.09375
2119,0,-13.98,08:52:21.921875,33.109375
2120,0,-15.54,08:52:21.937500,33.125
2121,0,-16.64,08:52:21.953125,33.140625
2122,0,-17.18,08:52:21.968750,33.15625
2123,0,-17.35,08:52:21.984375,33.171875
2124,0,-17.65,08:52:22,33.1875
2125,0,-18.7,08:52:22.015625,33.203125
2126,0,-20.93,08:52:22.031250,33.21875
2127,0,-24.4,08:52:22.046875,33.234375
2128,0,-28.65,08:52:22.062500,33.25
2129,0,-32.87,08:52:22.078125,33.265625
2130,0,-36.07,08:52:22.093750,33.28125
2131,0,-37.36,08:52:22.109375,33.296875
2132,0,-36.27,08:52:22.125000,33.3125
2133,0,-32.76,08:52:22.140625,33.328125
2134,0,-27.29,08:52:22.156250,33.34375
2135,0,-20.63,08:52:22.171875,33.359375
2136,0,-13.66,08:52:22.187500,33.375
2137,0,-7.1,08:52:22.203125,33.390625
2138,0,-1.46,08:52:22.218750,33.40625
2139,0,3.04,08:52:22.234375,33.421875
2140,0,6.33,08:52:22.250000,33.4375
2141,0,8.42,08:52:22.265625,33.453125
2142,0,9.31,08:52:22.281250,33.46875
2143,0,9.07,08:52:22.296875,33.484375
2144,0,7.9,08:52:22.312500,33.5
2145,0,6.22,08:52:22.328125,33.515625
2146,0,4.54,08:52:22.343750,33.53125
2147,0,3.38,08:52:22.359375,33.546875
2148,0,3.08,08:52:22.375000,33.5625
2149,0,3.65,08:52:22.390625,33.578125
2150,0,4.89,08:52:22.406250,33.59375
2151,0,6.43,08:52:22.421875,33.609375
2152,0,7.89,08:52:22.437500,33.625
2153,0,9.04,08:52:22.453125,33.640625
2154,0,9.8,08:52:22.468750,33.65625
2155,0,10.21,08:52:22.484375,33.671875
2156,0,10.35,08:52:22.500000,33.6875
2157,0,10.3,08:52:22.515625,33.703125
2158,0,10.05,08:52:22.531250,33.71875
2159,0,9.56,08:52:22.546875,33.734375
2160,0,8.72,08:52:22.562500,33.75
2161,0,7.43,08:52:22.578125,33.765625
2162,0,5.72,08:52:22.593750,33.78125
2163,0,3.73,08:52:22.609375,33.796875
2164,0,1.72,08:52:22.625000,33.8125
2165,0,-0.03,08:52:22.640625,33.828125
2166,0,-1.35,08:52:22.656250,33.84375
2167,0,-2.27,08:52:22.671875,33.859375
2168,0,-3.03,08:52:22.687500,33.875
2169,0,-3.93,08:52:22.703125,33.890625
2170,0,-5.22,08:52:22.718750,33.90625
2171,0,-6.95,08:52:22.734375,33.921875
2172,0,-8.95,08:52:22.750000,33.9375
2173,0,-10.95,08:52:22.765625,33.953125
2174,0,-12.71,08:52:22.781250,33.96875
2175,0,-14.11,08:52:22.796875,33.984375
2176,0,-15.26,08:52:22.812500,34.0
2177,0,-16.34,08:52:22.828125,34.015625
2178,0,-17.62,08:52:22.843750,34.03125
2179,0,-19.31,08:52:22.859375,34.046875
2180,0,-21.55,08:52:22.875000,34.0625
2181,0,-24.41,08:52:22.890625,34.078125
2182,0,-27.75,08:52:22.906250,34.09375
2183,0,-31.21,08:52:22.921875,34.109375
2184,0,-34.16,08:52:22.937500,34.125
2185,0,-35.79,08:52:22.953125,34.140625
2186,0,-35.36,08:52:22.968750,34.15625
2187,0,-32.42,08:52:22.984375,34.171875
2188,0,-27.08,08:52:23,34.1875
2189,0,-20.01,08:52:23.015625,34.203125
2190,0,-12.18,08:52:23.031250,34.21875
2191,0,-4.63,08:52:23.046875,34.234375
2192,0,1.84,08:52:23.062500,34.25
2193,0,6.81,08:52:23.078125,34.265625
2194,0,10.19,08:52:23.093750,34.28125
2195,0,12.09,08:52:23.109375,34.296875
2196,0,12.74,08:52:23.125000,34.3125
2197,0,12.37,08:52:23.140625,34.328125
2198,0,11.25,08:52:23.156250,34.34375
2199,0,9.72,08:52:23.171875,34.359375
2200,0,8.18,08:52:23.187500,34.375
2201,0,7.01,08:52:23.203125,34.390625
2202,0,6.46,08:52:23.218750,34.40625
2203,0,6.66,08:52:23.234375,34.421875
2204,0,7.48,08:52:23.250000,34.4375
2205,0,8.69,08:52:23.265625,34.453125
2206,0,9.99,08:52:23.281250,34.46875
2207,0,11.13,08:52:23.296875,34.484375
2208,0,11.99,08:52:23.312500,34.5
2209,0,12.5,08:52:23.328125,34.515625
2210,0,12.6,08:52:23.343750,34.53125
2211,0,12.23,08:52:23.359375,34.546875
2212,0,11.28,08:52:23.375000,34.5625
2213,0,9.68,08:52:23.390625,34.578125
2214,0,7.53,08:52:23.406250,34.59375
2215,0,5.08,08:52:23.421875,34.609375
2216,0,2.63,08:52:23.437500,34.625
2217,0,0.49,08:52:23.453125,34.640625
2218,0,-1.24,08:52:23.468750,34.65625
2219,0,-2.66,08:52:23.484375,34.671875
2220,0,-3.97,08:52:23.500000,34.6875
2221,0,-5.39,08:52:23.515625,34.703125
2222,0,-7.04,08:52:23.531250,34.71875
2223,0,-8.88,08:52:23.546875,34.734375
2224,0,-10.78,08:52:23.562500,34.75
2225,0,-12.61,08:52:23.578125,34.765625
2226,0,-14.27,08:52:23.593750,34.78125
2227,0,-15.74,08:52:23.609375,34.796875
2228,0,-17.11,08:52:23.625000,34.8125
2229,0,-18.5,08:52:23.640625,34.828125
2230,0,-20.19,08:52:23.656250,34.84375
2231,0,-22.45,08:52:23.671875,34.859375
2232,0,-25.54,08:52:23.687500,34.875
2233,0,-29.47,08:52:23.703125,34.890625
2234,0,-33.9,08:52:23.718750,34.90625
2235,0,-38.09,08:52:23.734375,34.921875
2236,0,-41.08,08:52:23.750000,34.9375
2237,0,-41.92,08:52:23.765625,34.953125
2238,0,-40.06,08:52:23.781250,34.96875
2239,0,-35.49,08:52:23.796875,34.984375
2240,0,-28.77,08:52:23.812500,35.0
2241,0,-20.83,08:52:23.828125,35.015625
2242,0,-12.71,08:52:23.843750,35.03125
2243,0,-5.33,08:52:23.859375,35.046875
2244,0,0.77,08:52:23.875000,35.0625
2245,0,5.37,08:52:23.890625,35.078125
2246,0,8.5,08:52:23.906250,35.09375
2247,0,10.35,08:52:23.921875,35.109375
2248,0,11.11,08:52:23.937500,35.125
2249,0,10.95,08:52:23.953125,35.140625
2250,0,10.07,08:52:23.968750,35.15625
2251,0,8.73,08:52:23.984375,35.171875
2252,0,7.29,08:52:24,35.1875
2253,0,6.13,08:52:24.015625,35.203125
2254,0,5.57,08:52:24.031250,35.21875
2255,0,5.78,08:52:24.046875,35.234375
2256,0,6.71,08:52:24.062500,35.25
2257,0,8.16,08:52:24.078125,35.265625
2258,0,9.78,08:52:24.093750,35.28125
2259,0,11.27,08:52:24.109375,35.296875
2260,0,12.41,08:52:24.125000,35.3125
2261,0,13.11,08:52:24.140625,35.328125
2262,0,13.33,08:52:24.156250,35.34375
2263,0,13.14,08:52:24.171875,35.359375
2264,0,12.57,08:52:24.187500,35.375
2265,0,11.62,08:52:24.203125,35.390625
2266,0,10.3,08:52:24.218750,35.40625
2267,0,8.57,08:52:24.234375,35.421875
2268,0,6.38,08:52:24.250000,35.4375
2269,0,3.8,08:52:24.265625,35.453125
2270,0,0.9,08:52:24.281250,35.46875
2271,0,-2.14,08:52:24.296875,35.484375
2272,0,-5.1,08:52:24.312500,35.5
2273,0,-7.82,08:52:24.328125,35.515625
2274,0,-10.22,08:52:24.343750,35.53125
2275,0,-12.33,08:52:24.359375,35.546875
2276,0,-14.31,08:52:24.375000,35.5625
2277,0,-16.33,08:52:24.390625,35.578125
2278,0,-18.54,08:52:24.406250,35.59375
2279,0,-21.07,08:52:24.421875,35.609375
2280,0,-23.96,08:52:24.437500,35.625
2281,0,-27.21,08:52:24.453125,35.640625
2282,0,-30.73,08:52:24.468750,35.65625
2283,0,-34.21,08:52:24.484375,35.671875
2284,0,-37.1,08:52:24.500000,35.6875
2285,0,-38.66,08:52:24.515625,35.703125
2286,0,-38.11,08:52:24.531250,35.71875
2287,0,-34.95,08:52:24.546875,35.734375
2288,0,-29.16,08:52:24.562500,35.75
2289,0,-21.26,08:52:24.578125,35.765625
2290,0,-12.26,08:52:24.593750,35.78125
2291,0,-3.25,08:52:24.609375,35.796875
2292,0,4.81,08:52:24.625000,35.8125
2293,0,11.32,08:52:24.640625,35.828125
2294,0,16.07,08:52:24.656250,35.84375
2295,0,19.07,08:52:24.671875,35.859375
2296,0,20.4,08:52:24.687500,35.875
2297,0,20.21,08:52:24.703125,35.890625
2298,0,18.71,08:52:24.718750,35.90625
2299,0,16.27,08:52:24.734375,35.921875
2300,0,13.45,08:52:24.750000,35.9375
2301,0,10.93,08:52:24.765625,35.953125
2302,0,9.26,08:52:24.781250,35.96875
2303,0,8.77,08:52:24.796875,35.984375
2304,0,9.4,08:52:24.812500,36.0
2305,0,10.77,08:52:24.828125,36.015625
2306,0,12.32,08:52:24.843750,36.03125
2307,0,13.62,08:52:24.859375,36.046875
2308,0,14.38,08:52:24.875000,36.0625
2309,0,14.6,08:52:24.890625,36.078125
2310,0,14.45,08:52:24.906250,36.09375
2311,0,14.13,08:52:24.921875,36.109375
2312,0,13.8,08:52:24.937500,36.125
2313,0,13.42,08:52:24.953125,36.140625
2314,0,12.79,08:52:24.968750,36.15625
2315,0,11.64,08:52:24.984375,36.171875
2316,0,9.66,08:52:25,36.1875
2317,0,6.7,08:52:25.015625,36.203125
2318,0,2.84,08:52:25.031250,36.21875
2319,0,-1.66,08:52:25.046875,36.234375
2320,0,-6.38,08:52:25.062500,36.25
2321,0,-10.88,08:52:25.078125,36.265625
2322,0,-14.92,08:52:25.093750,36.28125
2323,0,-18.46,08:52:25.109375,36.296875
2324,0,-21.69,08:52:25.125000,36.3125
2325,0,-24.95,08:52:25.140625,36.328125
2326,0,-28.63,08:52:25.156250,36.34375
2327,0,-32.9,08:52:25.171875,36.359375
2328,0,-37.73,08:52:25.187500,36.375
2329,0,-42.65,08:52:25.203125,36.390625
2330,0,-46.91,08:52:25.218750,36.40625
2331,0,-49.56,08:52:25.234375,36.421875
2332,0,-49.68,08:52:25.250000,36.4375
2333,0,-46.75,08:52:25.265625,36.453125
2334,0,-40.75,08:52:25.281250,36.46875
2335,0,-32.26,08:52:25.296875,36.484375
2336,0,-22.23,08:52:25.312500,36.5
2337,0,-11.79,08:52:25.328125,36.515625
2338,0,-1.96,08:52:25.343750,36.53125
2339,0,6.5,08:52:25.359375,36.546875
2340,0,13.13,08:52:25.375000,36.5625
2341,0,17.76,08:52:25.390625,36.578125
2342,0,20.38,08:52:25.406250,36.59375
2343,0,21.18,08:52:25.421875,36.609375
2344,0,20.44,08:52:25.437500,36.625
2345,0,18.65,08:52:25.453125,36.640625
2346,0,16.4,08:52:25.468750,36.65625
2347,0,14.37,08:52:25.484375,36.671875
2348,0,13.13,08:52:25.500000,36.6875
2349,0,13.04,08:52:25.515625,36.703125
2350,0,14.08,08:52:25.531250,36.71875
2351,0,15.94,08:52:25.546875,36.734375
2352,0,18.07,08:52:25.562500,36.75
2353,0,19.93,08:52:25.578125,36.765625
2354,0,21.17,08:52:25.593750,36.78125
2355,0,21.65,08:52:25.609375,36.796875
2356,0,21.5,08:52:25.625000,36.8125
2357,0,20.92,08:52:25.640625,36.828125
2358,0,19.99,08:52:25.656250,36.84375
2359,0,18.69,08:52:25.671875,36.859375
2360,0,16.86,08:52:25.687500,36.875
2361,0,14.33,08:52:25.703125,36.890625
2362,0,11.03,08:52:25.718750,36.90625
2363,0,7.09,08:52:25.734375,36.921875
2364,0,2.81,08:52:25.750000,36.9375
2365,0,-1.43,08:52:25.765625,36.953125
2366,0,-5.29,08:52:25.781250,36.96875
2367,0,-8.59,08:52:25.796875,36.984375
2368,0,-11.45,08:52:25.812500,37.0
2369,0,-14.21,08:52:25.828125,37.015625
2370,0,-17.38,08:52:25.843750,37.03125
2371,0,-21.42,08:52:25.859375,37.046875
2372,0,-26.53,08:52:25.875000,37.0625
2373,0,-32.48,08:52:25.890625,37.078125
2374,0,-38.55,08:52:25.906250,37.09375
2375,0,-43.59,08:52:25.921875,37.109375
2376,0,-46.38,08:52:25.937500,37.125
2377,0,-45.83,08:52:25.953125,37.140625
2378,0,-41.45,08:52:25.968750,37.15625
2379,0,-33.46,08:52:25.984375,37.171875
2380,0,-22.78,08:52:26,37.1875
2381,0,-10.79,08:52:26.015625,37.203125
2382,0,1.09,08:52:26.031250,37.21875
2383,0,11.69,08:52:26.046875,37.234375
2384,0,20.34,08:52:26.062500,37.25
2385,0,26.77,08:52:26.078125,37.265625
2386,0,31.05,08:52:26.093750,37.28125
2387,0,33.3,08:52:26.109375,37.296875
2388,0,33.75,08:52:26.125000,37.3125
2389,0,32.67,08:52:26.140625,37.328125
2390,0,30.5,08:52:26.156250,37.34375
2391,0,27.82,08:52:26.171875,37.359375
2392,0,25.3,08:52:26.187500,37.375
2393,0,23.54,08:52:26.203125,37.390625
2394,0,22.88,08:52:26.218750,37.40625
2395,0,23.39,08:52:26.234375,37.421875
2396,0,24.74,08:52:26.250000,37.4375
2397,0,26.39,08:52:26.265625,37.453125
2398,0,27.78,08:52:26.281250,37.46875
2399,0,28.5,08:52:26.296875,37.484375
2400,0,28.44,08:52:26.312500,37.5
2401,0,27.79,08:52:26.328125,37.515625
2402,0,26.89,08:52:26.343750,37.53125
2403,0,25.93,08:52:26.359375,37.546875
2404,0,24.88,08:52:26.375000,37.5625
2405,0,23.41,08:52:26.390625,37.578125
2406,0,21.11,08:52:26.406250,37.59375
2407,0,17.81,08:52:26.421875,37.609375
2408,0,13.66,08:52:26.437500,37.625
2409,0,9.17,08:52:26.453125,37.640625
2410,0,4.97,08:52:26.468750,37.65625
2411,0,1.4,08:52:26.484375,37.671875
2412,0,-1.54,08:52:26.500000,37.6875
2413,0,-4.27,08:52:26.515625,37.703125
2414,0,-7.36,08:52:26.531250,37.71875
2415,0,-11.26,08:52:26.546875,37.734375
2416,0,-16.15,08:52:26.562500,37.75
2417,0,-21.9,08:52:26.578125,37.765625
2418,0,-28.04,08:52:26.593750,37.78125
2419,0,-33.84,08:52:26.609375,37.796875
2420,0,-38.35,08:52:26.625000,37.8125
2421,0,-40.57,08:52:26.640625,37.828125
2422,0,-39.67,08:52:26.656250,37.84375
2423,0,-35.23,08:52:26.671875,37.859375
2424,0,-27.51,08:52:26.687500,37.875
2425,0,-17.38,08:52:26.703125,37.890625
2426,0,-6.16,08:52:26.718750,37.90625
2427,0,4.76,08:52:26.734375,37.921875
2428,0,14.28,08:52:26.750000,37.9375
2429,0,21.72,08:52:26.765625,37.953125
2430,0,26.84,08:52:26.781250,37.96875
2431,0,29.7,08:52:26.796875,37.984375
2432,0,30.53,08:52:26.812500,38.0
2433,0,29.69,08:52:26.828125,38.015625
2434,0,27.65,08:52:26.843750,38.03125
2435,0,24.98,08:52:26.859375,38.046875
2436,0,22.37,08:52:26.875000,38.0625
2437,0,20.4,08:52:26.890625,38.078125
2438,0,19.44,08:52:26.906250,38.09375
2439,0,19.54,08:52:26.921875,38.109375
2440,0,20.39,08:52:26.937500,38.125
2441,0,21.51,08:52:26.953125,38.140625
2442,0,22.39,08:52:26.968750,38.15625
2443,0,22.74,08:52:26.984375,38.171875
2444,0,22.53,08:52:27,38.1875
2445,0,22.03,08:52:27.015625,38.203125
2446,0,21.53,08:52:27.031250,38.21875
2447,0,21.16,08:52:27.046875,38.234375
2448,0,20.7,08:52:27.062500,38.25
2449,0,19.68,08:52:27.078125,38.265625
2450,0,17.58,08:52:27.093750,38.28125
2451,0,14.15,08:52:27.109375,38.296875
2452,0,9.61,08:52:27.125000,38.3125
2453,0,4.6,08:52:27.140625,38.328125
2454,0,-0.09,08:52:27.156250,38.34375
2455,0,-4.02,08:52:27.171875,38.359375
2456,0,-7.16,08:52:27.187500,38.375
2457,0,-9.98,08:52:27.203125,38.390625
2458,0,-13.16,08:52:27.218750,38.40625
2459,0,-17.24,08:52:27.234375,38.421875
2460,0,-22.48,08:52:27.250000,38.4375
2461,0,-28.76,08:52:27.265625,38.453125
2462,0,-35.62,08:52:27.281250,38.46875
2463,0,-42.2,08:52:27.296875,38.484375
2464,0,-47.31,08:52:27.312500,38.5
2465,0,-49.53,08:52:27.328125,38.515625
2466,0,-47.61,08:52:27.343750,38.53125
2467,0,-40.97,08:52:27.359375,38.546875
2468,0,-30.01,08:52:27.375000,38.5625
2469,0,-16.21,08:52:27.390625,38.578125
2470,0,-1.59,08:52:27.406250,38.59375
2471,0,11.87,08:52:27.421875,38.609375
2472,0,22.86,08:52:27.437500,38.625
2473,0,30.92,08:52:27.453125,38.640625
2474,0,36.28,08:52:27.468750,38.65625
2475,0,39.43,08:52:27.484375,38.671875
2476,0,40.74,08:52:27.500000,38.6875
2477,0,40.44,08:52:27.515625,38.703125
2478,0,38.77,08:52:27.531250,38.71875
2479,0,36.12,08:52:27.546875,38.734375
2480,0,33.1,08:52:27.562500,38.75
2481,0,30.44,08:52:27.578125,38.765625
2482,0,28.72,08:52:27.593750,38.78125
2483,0,28.15,08:52:27.609375,38.796875
2484,0,28.58,08:52:27.625000,38.8125
2485,0,29.56,08:52:27.640625,38.828125
2486,0,30.59,08:52:27.656250,38.84375
2487,0,31.29,08:52:27.671875,38.859375
2488,0,31.46,08:52:27.687500,38.875
2489,0,31.13,08:52:27.703125,38.890625
2490,0,30.35,08:52:27.718750,38.90625
2491,0,29.12,08:52:27.734375,38.921875
2492,0,27.32,08:52:27.750000,38.9375
2493,0,24.77,08:52:27.765625,38.953125
2494,0,21.39,08:52:27.781250,38.96875
2495,0,17.26,08:52:27.796875,38.984375
2496,0,12.68,08:52:27.812500,39.0
2497,0,8.13,08:52:27.828125,39.015625
2498,0,4.02,08:52:27.843750,39.03125
2499,0,0.57,08:52:27.859375,39.046875
2500,0,-2.32,08:52:27.875000,39.0625
2501,0,-5.07,08:52:27.890625,39.078125
2502,0,-8.25,08:52:27.906250,39.09375
2503,0,-12.38,08:52:27.921875,39.109375
2504,0,-17.68,08:52:27.937500,39.125
2505,0,-23.91,08:52:27.953125,39.140625
2506,0,-30.37,08:52:27.968750,39.15625
2507,0,-35.96,08:52:27.984375,39.171875
2508,0,-39.44,08:52:28,39.1875
2509,0,-39.73,08:52:28.015625,39.203125
2510,0,-36.24,08:52:28.031250,39.21875
2511,0,-29.02,08:52:28.046875,39.234375
2512,0,-18.86,08:52:28.062500,39.25
2513,0,-7.08,08:52:28.078125,39.265625
2514,0,4.75,08:52:28.093750,39.28125
2515,0,15.24,08:52:28.109375,39.296875
2516,0,23.41,08:52:28.125000,39.3125
2517,0,28.86,08:52:28.140625,39.328125
2518,0,31.66,08:52:28.156250,39.34375
2519,0,32.23,08:52:28.171875,39.359375
2520,0,31.11,08:52:28.187500,39.375
2521,0,28.92,08:52:28.203125,39.390625
2522,0,26.27,08:52:28.218750,39.40625
2523,0,23.74,08:52:28.234375,39.421875
2524,0,21.85,08:52:28.250000,39.4375
2525,0,20.93,08:52:28.265625,39.453125
2526,0,20.98,08:52:28.281250,39.46875
2527,0,21.73,08:52:28.296875,39.484375
2528,0,22.76,08:52:28.312500,39.5
2529,0,23.61,08:52:28.328125,39.515625
2530,0,24.07,08:52:28.343750,39.53125
2531,0,24.13,08:52:28.359375,39.546875
2532,0,23.89,08:52:28.375000,39.5625
2533,0,23.39,08:52:28.390625,39.578125
2534,0,22.53,08:52:28.406250,39.59375
2535,0,21.01,08:52:28.421875,39.609375
2536,0,18.57,08:52:28.437500,39.625
2537,0,15.11,08:52:28.453125,39.640625
2538,0,10.86,08:52:28.468750,39.65625
2539,0,6.25,08:52:28.484375,39.671875
2540,0,1.77,08:52:28.500000,39.6875
2541,0,-2.22,08:52:28.515625,39.703125
2542,0,-5.61,08:52:28.531250,39.71875
2543,0,-8.59,08:52:28.546875,39.734375
2544,0,-11.51,08:52:28.562500,39.75
2545,0,-14.81,08:52:28.578125,39.765625
2546,0,-18.88,08:52:28.593750,39.78125
2547,0,-23.94,08:52:28.609375,39.796875
2548,0,-29.9,08:52:28.625000,39.8125
2549,0,-36.25,08:52:28.640625,39.828125
2550,0,-41.99,08:52:28.656250,39.84375
2551,0,-45.82,08:52:28.671875,39.859375
2552,0,-46.48,08:52:28.687500,39.875
2553,0,-43.18,08:52:28.703125,39.890625
2554,0,-35.96,08:52:28.718750,39.90625
2555,0,-25.69,08:52:28.734375,39.921875
2556,0,-13.87,08:52:28.750000,39.9375
2557,0,-2.13,08:52:28.765625,39.953125
2558,0,8.22,08:52:28.781250,39.96875
2559,0,16.47,08:52:28.796875,39.984375
2560,0,22.47,08:52:28.812500,40.0
2561,0,26.42,08:52:28.828125,40.015625
2562,0,28.64,08:52:28.843750,40.03125
2563,0,29.41,08:52:28.859375,40.046875
2564,0,28.97,08:52:28.875000,40.0625
2565,0,27.66,08:52:28.890625,40.078125
2566,0,25.88,08:52:28.906250,40.09375
2567,0,24.14,08:52:28.921875,40.109375
2568,0,22.82,08:52:28.937500,40.125
2569,0,22.16,08:52:28.953125,40.140625
2570,0,22.14,08:52:28.968750,40.15625
2571,0,22.56,08:52:28.984375,40.171875
2572,0,23.1,08:52:29,40.1875
2573,0,23.48,08:52:29.015625,40.203125
2574,0,23.5,08:52:29.031250,40.21875
2575,0,23.11,08:52:29.046875,40.234375
2576,0,22.34,08:52:29.062500,40.25
2577,0,21.26,08:52:29.078125,40.265625
2578,0,19.87,08:52:29.093750,40.28125
2579,0,18.1,08:52:29.109375,40.296875
2580,0,15.78,08:52:29.125000,40.3125
2581,0,12.8,08:52:29.140625,40.328125
2582,0,9.18,08:52:29.156250,40.34375
2583,0,5.14,08:52:29.171875,40.359375
2584,0,1.03,08:52:29.187500,40.375
2585,0,-2.78,08:52:29.203125,40.390625
2586,0,-6.14,08:52:29.218750,40.40625
2587,0,-9.17,08:52:29.234375,40.421875
2588,0,-12.22,08:52:29.250000,40.4375
2589,0,-15.83,08:52:29.265625,40.453125
2590,0,-20.39,08:52:29.281250,40.46875
2591,0,-26.06,08:52:29.296875,40.484375
2592,0,-32.58,08:52:29.312500,40.5
2593,0,-39.26,08:52:29.328125,40.515625
2594,0,-44.99,08:52:29.343750,40.53125
2595,0,-48.51,08:52:29.359375,40.546875
2596,0,-48.71,08:52:29.375000,40.5625
2597,0,-44.98,08:52:29.390625,40.578125
2598,0,-37.5,08:52:29.406250,40.59375
2599,0,-27.26,08:52:29.421875,40.609375
2600,0,-15.78,08:52:29.437500,40.625
2601,0,-4.7,08:52:29.453125,40.640625
2602,0,4.82,08:52:29.468750,40.65625
2603,0,12.23,08:52:29.484375,40.671875
2604,0,17.64,08:52:29.500000,40.6875
2605,0,21.5,08:52:29.515625,40.703125
2606,0,24.24,08:52:29.531250,40.71875
2607,0,26.04,08:52:29.546875,40.734375
2608,0,26.85,08:52:29.562500,40.75
2609,0,26.6,08:52:29.578125,40.765625
2610,0,25.45,08:52:29.593750,40.78125
2611,0,23.83,08:52:29.609375,40.796875
2612,0,22.42,08:52:29.625000,40.8125
2613,0,21.78,08:52:29.640625,40.828125
2614,0,22.14,08:52:29.656250,40.84375
2615,0,23.3,08:52:29.671875,40.859375
2616,0,24.75,08:52:29.687500,40.875
2617,0,25.93,08:52:29.703125,40.890625
2618,0,26.44,08:52:29.718750,40.90625
2619,0,26.21,08:52:29.734375,40.921875
2620,0,25.33,08:52:29.750000,40.9375
2621,0,24.03,08:52:29.765625,40.953125
2622,0,22.45,08:52:29.781250,40.96875
2623,0,20.62,08:52:29.796875,40.984375
2624,0,18.52,08:52:29.812500,41.0
2625,0,16.06,08:52:29.828125,41.015625
2626,0,13.19,08:52:29.843750,41.03125
2627,0,9.89,08:52:29.859375,41.046875
2628,0,6.21,08:52:29.875000,41.0625
2629,0,2.25,08:52:29.890625,41.078125
2630,0,-1.78,08:52:29.906250,41.09375
2631,0,-5.64,08:52:29.921875,41.109375
2632,0,-9.14,08:52:29.937500,41.125
2633,0,-12.2,08:52:29.953125,41.140625
2634,0,-14.92,08:52:29.968750,41.15625
2635,0,-17.6,08:52:29.984375,41.171875
2636,0,-20.64,08:52:30,41.1875
2637,0,-24.4,08:52:30.015625,41.203125
2638,0,-29.15,08:52:30.031250,41.21875
2639,0,-34.84,08:52:30.046875,41.234375
2640,0,-40.98,08:52:30.062500,41.25
2641,0,-46.69,08:52:30.078125,41.265625
2642,0,-50.77,08:52:30.093750,41.28125
2643,0,-52.07,08:52:30.109375,41.296875
2644,0,-49.81,08:52:30.125000,41.3125
2645,0,-43.84,08:52:30.140625,41.328125
2646,0,-34.8,08:52:30.156250,41.34375
2647,0,-23.9,08:52:30.171875,41.359375
2648,0,-12.53,08:52:30.187500,41.375
2649,0,-1.95,08:52:30.203125,41.390625
2650,0,7.09,08:52:30.218750,41.40625
2651,0,14.37,08:52:30.234375,41.421875
2652,0,20.04,08:52:30.250000,41.4375
2653,0,24.4,08:52:30.265625,41.453125
2654,0,27.68,08:52:30.281250,41.46875
2655,0,29.91,08:52:30.296875,41.484375
2656,0,31.07,08:52:30.312500,41.5
2657,0,31.18,08:52:30.328125,41.515625
2658,0,30.48,08:52:30.343750,41.53125
2659,0,29.44,08:52:30.359375,41.546875
2660,0,28.63,08:52:30.375000,41.5625
2661,0,28.47,08:52:30.390625,41.578125
2662,0,29.06,08:52:30.406250,41.59375
2663,0,30.11,08:52:30.421875,41.609375
2664,0,31.13,08:52:30.437500,41.625
2665,0,31.7,08:52:30.453125,41.640625
2666,0,31.69,08:52:30.468750,41.65625
2667,0,31.27,08:52:30.484375,41.671875
2668,0,30.75,08:52:30.500000,41.6875
2669,0,30.31,08:52:30.515625,41.703125
2670,0,29.84,08:52:30.531250,41.71875
2671,0,28.98,08:52:30.546875,41.734375
2672,0,27.34,08:52:30.562500,41.75
2673,0,24.71,08:52:30.578125,41.765625
2674,0,21.28,08:52:30.593750,41.78125
2675,0,17.47,08:52:30.609375,41.796875
2676,0,13.83,08:52:30.625000,41.8125
2677,0,10.73,08:52:30.640625,41.828125
2678,0,8.23,08:52:30.656250,41.84375
2679,0,6.12,08:52:30.671875,41.859375
2680,0,4.02,08:52:30.687500,41.875
2681,0,1.58,08:52:30.703125,41.890625
2682,0,-1.4,08:52:30.718750,41.90625
2683,0,-4.9,08:52:30.734375,41.921875
2684,0,-8.74,08:52:30.750000,41.9375
2685,0,-12.66,08:52:30.765625,41.953125
2686,0,-16.42,08:52:30.781250,41.96875
2687,0,-19.87,08:52:30.796875,41.984375
2688,0,-22.95,08:52:30.812500,42.0
2689,0,-25.71,08:52:30.828125,42.015625
2690,0,-28.37,08:52:30.843750,42.03125
2691,0,-31.3,08:52:30.859375,42.046875
2692,0,-34.91,08:52:30.875000,42.0625
2693,0,-39.58,08:52:30.890625,42.078125
2694,0,-45.36,08:52:30.906250,42.09375
2695,0,-51.77,08:52:30.921875,42.109375
2696,0,-57.77,08:52:30.937500,42.125
2697,0,-61.99,08:52:30.953125,42.140625
2698,0,-63.05,08:52:30.968750,42.15625
2699,0,-60.13,08:52:30.984375,42.171875
2700,0,-53.25,08:52:31,42.1875
2701,0,-43.27,08:52:31.015625,42.203125
2702,0,-31.59,08:52:31.031250,42.21875
2703,0,-19.71,08:52:31.046875,42.234375
2704,0,-8.78,08:52:31.062500,42.25
2705,0,0.58,08:52:31.078125,42.265625
2706,0,8.25,08:52:31.093750,42.28125
2707,0,14.38,08:52:31.109375,42.296875
2708,0,19.17,08:52:31.125000,42.3125
2709,0,22.7,08:52:31.140625,42.328125
2710,0,25.05,08:52:31.156250,42.34375
2711,0,26.31,08:52:31.171875,42.359375
2712,0,26.74,08:52:31.187500,42.375
2713,0,26.75,08:52:31.203125,42.390625
2714,0,26.78,08:52:31.218750,42.40625
2715,0,27.16,08:52:31.234375,42.421875
2716,0,27.96,08:52:31.250000,42.4375
2717,0,29.0,08:52:31.265625,42.453125
2718,0,29.95,08:52:31.281250,42.46875
2719,0,30.53,08:52:31.296875,42.484375
2720,0,30.62,08:52:31.312500,42.5
2721,0,30.31,08:52:31.328125,42.515625
2722,0,29.84,08:52:31.343750,42.53125
2723,0,29.46,08:52:31.359375,42.546875
2724,0,29.25,08:52:31.375000,42.5625
2725,0,29.08,08:52:31.390625,42.578125
2726,0,28.6,08:52:31.406250,42.59375
2727,0,27.41,08:52:31.421875,42.609375
2728,0,25.21,08:52:31.437500,42.625
2729,0,22.0,08:52:31.453125,42.640625
2730,0,18.06,08:52:31.468750,42.65625
2731,0,13.95,08:52:31.484375,42.671875
2732,0,10.24,08:52:31.500000,42.6875
2733,0,7.27,08:52:31.515625,42.703125
2734,0,5.09,08:52:31.531250,42.71875
2735,0,3.37,08:52:31.546875,42.734375
2736,0,1.63,08:52:31.562500,42.75
2737,0,-0.57,08:52:31.578125,42.765625
2738,0,-3.43,08:52:31.593750,42.78125
2739,0,-6.88,08:52:31.609375,42.796875
2740,0,-10.58,08:52:31.625000,42.8125
2741,0,-14.18,08:52:31.640625,42.828125
2742,0,-17.38,08:52:31.656250,42.84375
2743,0,-20.11,08:52:31.671875,42.859375
2744,0,-22.54,08:52:31.687500,42.875
2745,0,-25.0,08:52:31.703125,42.890625
2746,0,-27.97,08:52:31.718750,42.90625
2747,0,-31.85,08:52:31.734375,42.921875
2748,0,-36.91,08:52:31.750000,42.9375
2749,0,-43.02,08:52:31.765625,42.953125
2750,0,-49.65,08:52:31.781250,42.96875
2751,0,-55.73,08:52:31.796875,42.984375
2752,0,-59.93,08:52:31.812500,43.0
2753,0,-60.99,08:52:31.828125,43.015625
2754,0,-58.09,08:52:31.843750,43.03125
2755,0,-51.25,08:52:31.859375,43.046875
2756,0,-41.34,08:52:31.875000,43.0625
2757,0,-29.8,08:52:31.890625,43.078125
2758,0,-18.19,08:52:31.906250,43.09375
2759,0,-7.72,08:52:31.921875,43.109375
2760,0,1.01,08:52:31.937500,43.125
2761,0,7.92,08:52:31.953125,43.140625
2762,0,13.25,08:52:31.968750,43.15625
2763,0,17.22,08:52:31.984375,43.171875
2764,0,19.96,08:52:32,43.1875
2765,0,21.49,08:52:32.015625,43.203125
2766,0,21.94,08:52:32.031250,43.21875
2767,0,21.63,08:52:32.046875,43.234375
2768,0,21.02,08:52:32.062500,43.25
2769,0,20.58,08:52:32.078125,43.265625
2770,0,20.59,08:52:32.093750,43.28125
2771,0,21.04,08:52:32.109375,43.296875
2772,0,21.69,08:52:32.125000,43.3125
2773,0,22.23,08:52:32.140625,43.328125
2774,0,22.49,08:52:32.156250,43.34375
2775,0,22.46,08:52:32.171875,43.359375
2776,0,22.26,08:52:32.187500,43.375
2777,0,22.05,08:52:32.203125,43.390625
2778,0,21.84,08:52:32.218750,43.40625
2779,0,21.52,08:52:32.234375,43.421875
2780,0,20.93,08:52:32.250000,43.4375
2781,0,19.9,08:52:32.265625,43.453125
2782,0,18.42,08:52:32.281250,43.46875
2783,0,16.53,08:52:32.296875,43.484375
2784,0,14.36,08:52:32.312500,43.5
2785,0,11.99,08:52:32.328125,43.515625
2786,0,9.48,08:52:32.343750,43.53125
2787,0,6.82,08:52:32.359375,43.546875
2788,0,4.02,08:52:32.375000,43.5625
2789,0,1.1,08:52:32.390625,43.578125
2790,0,-1.89,08:52:32.406250,43.59375
2791,0,-4.84,08:52:32.421875,43.609375
2792,0,-7.64,08:52:32.437500,43.625
2793,0,-10.13,08:52:32.453125,43.640625
2794,0,-12.15,08:52:32.468750,43.65625
2795,0,-13.59,08:52:32.484375,43.671875
2796,0,-14.49,08:52:32.500000,43.6875
2797,0,-15.12,08:52:32.515625,43.703125
2798,0,-15.97,08:52:32.531250,43.71875
2799,0,-17.7,08:52:32.546875,43.734375
2800,0,-20.85,08:52:32.562500,43.75
2801,0,-25.69,08:52:32.578125,43.765625
2802,0,-31.98,08:52:32.593750,43.78125
2803,0,-38.88,08:52:32.609375,43.796875
2804,0,-45.07,08:52:32.625000,43.8125
2805,0,-49.07,08:52:32.640625,43.828125
2806,0,-49.62,08:52:32.656250,43.84375
2807,0,-46.16,08:52:32.671875,43.859375
2808,0,-38.95,08:52:32.687500,43.875
2809,0,-29.04,08:52:32.703125,43.890625
2810,0,-17.97,08:52:32.718750,43.90625
2811,0,-7.25,08:52:32.734375,43.921875
2812,0,2.0,08:52:32.750000,43.9375
2813,0,9.25,08:52:32.765625,43.953125
2814,0,14.54,08:52:32.781250,43.96875
2815,0,18.24,08:52:32.796875,43.984375
2816,0,20.77,08:52:32.812500,44.0
2817,0,22.46,08:52:32.828125,44.015625
2818,0,23.47,08:52:32.843750,44.03125
2819,0,23.88,08:52:32.859375,44.046875
2820,0,23.76,08:52:32.875000,44.0625
2821,0,23.26,08:52:32.890625,44.078125
2822,0,22.64,08:52:32.906250,44.09375
2823,0,22.19,08:52:32.921875,44.109375
2824,0,22.15,08:52:32.937500,44.125
2825,0,22.58,08:52:32.953125,44.140625
2826,0,23.34,08:52:32.968750,44.15625
2827,0,24.19,08:52:32.984375,44.171875
2828,0,24.81,08:52:33,44.1875
2829,0,25.05,08:52:33.015625,44.203125
2830,0,24.88,08:52:33.031250,44.21875
2831,0,24.4,08:52:33.046875,44.234375
2832,0,23.7,08:52:33.062500,44.25
2833,0,22.74,08:52:33.078125,44.265625
2834,0,21.41,08:52:33.093750,44.28125
2835,0,19.54,08:52:33.109375,44.296875
2836,0,17.07,08:52:33.125000,44.3125
2837,0,14.1,08:52:33.140625,44.328125
2838,0,10.91,08:52:33.156250,44.34375
2839,0,7.8,08:52:33.171875,44.359375
2840,0,4.99,08:52:33.187500,44.375
2841,0,2.47,08:52:33.203125,44.390625
2842,0,-0.02,08:52:33.218750,44.40625
2843,0,-2.78,08:52:33.234375,44.421875
2844,0,-6.04,08:52:33.250000,44.4375
2845,0,-9.78,08:52:33.265625,44.453125
2846,0,-13.71,08:52:33.281250,44.46875
2847,0,-17.44,08:52:33.296875,44.484375
2848,0,-20.63,08:52:33.312500,44.5
2849,0,-23.19,08:52:33.328125,44.515625
2850,0,-25.36,08:52:33.343750,44.53125
2851,0,-27.61,08:52:33.359375,44.546875
2852,0,-30.5,08:52:33.375000,44.5625
2853,0,-34.5,08:52:33.390625,44.578125
2854,0,-39.74,08:52:33.406250,44.59375
2855,0,-45.93,08:52:33.421875,44.609375
2856,0,-52.3,08:52:33.437500,44.625
2857,0,-57.72,08:52:33.453125,44.640625
2858,0,-60.86,08:52:33.468750,44.65625
2859,0,-60.57,08:52:33.484375,44.671875
2860,0,-56.22,08:52:33.500000,44.6875
2861,0,-48.01,08:52:33.515625,44.703125
2862,0,-36.93,08:52:33.531250,44.71875
2863,0,-24.49,08:52:33.546875,44.734375
2864,0,-12.31,08:52:33.562500,44.75
2865,0,-1.61,08:52:33.578125,44.765625
2866,0,6.99,08:52:33.593750,44.78125
2867,0,13.44,08:52:33.609375,44.796875
2868,0,18.03,08:52:33.625000,44.8125
2869,0,21.12,08:52:33.640625,44.828125
2870,0,22.99,08:52:33.656250,44.84375
2871,0,23.81,08:52:33.671875,44.859375
2872,0,23.76,08:52:33.687500,44.875
2873,0,23.17,08:52:33.703125,44.890625
2874,0,22.41,08:52:33.718750,44.90625
2875,0,21.88,08:52:33.734375,44.921875
2876,0,21.86,08:52:33.750000,44.9375
2877,0,22.4,08:52:33.765625,44.953125
2878,0,23.35,08:52:33.781250,44.96875
2879,0,24.44,08:52:33.796875,44.984375
2880,0,25.39,08:52:33.812500,45.0
2881,0,26.04,08:52:33.828125,45.015625
2882,0,26.36,08:52:33.843750,45.03125
2883,0,26.42,08:52:33.859375,45.046875
2884,0,26.28,08:52:33.875000,45.0625
2885,0,25.89,08:52:33.890625,45.078125
2886,0,25.09,08:52:33.906250,45.09375
2887,0,23.71,08:52:33.921875,45.109375
2888,0,21.64,08:52:33.937500,45.125
2889,0,18.99,08:52:33.953125,45.140625
2890,0,16.05,08:52:33.968750,45.15625
2891,0,13.18,08:52:33.984375,45.171875
2892,0,10.65,08:52:34,45.1875
2893,0,8.49,08:52:34.015625,45.203125
2894,0,6.49,08:52:34.031250,45.21875
2895,0,4.31,08:52:34.046875,45.234375
2896,0,1.7,08:52:34.062500,45.25
2897,0,-1.47,08:52:34.078125,45.265625
2898,0,-5.09,08:52:34.093750,45.28125
2899,0,-8.9,08:52:34.109375,45.296875
2900,0,-12.58,08:52:34.125000,45.3125
2901,0,-15.88,08:52:34.140625,45.328125
2902,0,-18.68,08:52:34.156250,45.34375
2903,0,-21.12,08:52:34.171875,45.359375
2904,0,-23.54,08:52:34.187500,45.375
2905,0,-26.44,08:52:34.203125,45.390625
2906,0,-30.29,08:52:34.218750,45.40625
2907,0,-35.26,08:52:34.234375,45.421875
2908,0,-41.02,08:52:34.250000,45.4375
2909,0,-46.64,08:52:34.265625,45.453125
2910,0,-50.83,08:52:34.281250,45.46875
2911,0,-52.33,08:52:34.296875,45.484375
2912,0,-50.32,08:52:34.312500,45.5
2913,0,-44.73,08:52:34.328125,45.515625
2914,0,-36.3,08:52:34.343750,45.53125
2915,0,-26.32,08:52:34.359375,45.546875
2916,0,-16.26,08:52:34.375000,45.5625
2917,0,-7.31,08:52:34.390625,45.578125
2918,0,-0.17,08:52:34.406250,45.59375
2919,0,4.99,08:52:34.421875,45.609375
2920,0,8.32,08:52:34.437500,45.625
2921,0,10.19,08:52:34.453125,45.640625
2922,0,10.94,08:52:34.468750,45.65625
2923,0,10.88,08:52:34.484375,45.671875
2924,0,10.35,08:52:34.500000,45.6875
2925,0,9.71,08:52:34.515625,45.703125
2926,0,9.31,08:52:34.531250,45.71875
2927,0,9.48,08:52:34.546875,45.734375
2928,0,10.34,08:52:34.562500,45.75
2929,0,11.8,08:52:34.578125,45.765625
2930,0,13.65,08:52:34.593750,45.78125
2931,0,15.62,08:52:34.609375,45.796875
2932,0,17.52,08:52:34.625000,45.8125
2933,0,19.27,08:52:34.640625,45.828125
2934,0,20.82,08:52:34.656250,45.84375
2935,0,22.06,08:52:34.671875,45.859375
2936,0,22.82,08:52:34.687500,45.875
2937,0,22.93,08:52:34.703125,45.890625
2938,0,22.26,08:52:34.718750,45.90625
2939,0,20.87,08:52:34.734375,45.921875
2940,0,18.96,08:52:34.750000,45.9375
2941,0,16.78,08:52:34.765625,45.953125
2942,0,14.53,08:52:34.781250,45.96875
2943,0,12.27,08:52:34.796875,45.984375
2944,0,9.92,08:52:34.812500,46.0
2945,0,7.34,08:52:34.828125,46.015625
2946,0,4.43,08:52:34.843750,46.03125
2947,0,1.2,08:52:34.859375,46.046875
2948,0,-2.22,08:52:34.875000,46.0625
2949,0,-5.66,08:52:34.890625,46.078125
2950,0,-8.91,08:52:34.906250,46.09375
2951,0,-11.88,08:52:34.921875,46.109375
2952,0,-14.58,08:52:34.937500,46.125
2953,0,-17.15,08:52:34.953125,46.140625
2954,0,-19.82,08:52:34.968750,46.15625
2955,0,-22.92,08:52:34.984375,46.171875
2956,0,-26.81,08:52:35,46.1875
2957,0,-31.7,08:52:35.015625,46.203125
2958,0,-37.51,08:52:35.031250,46.21875
2959,0,-43.65,08:52:35.046875,46.234375
2960,0,-49.03,08:52:35.062500,46.25
2961,0,-52.22,08:52:35.078125,46.265625
2962,0,-51.92,08:52:35.093750,46.28125
2963,0,-47.39,08:52:35.109375,46.296875
2964,0,-38.87,08:52:35.125000,46.3125
2965,0,-27.49,08:52:35.140625,46.328125
2966,0,-14.96,08:52:35.156250,46.34375
2967,0,-3.01,08:52:35.171875,46.359375
2968,0,7.13,08:52:35.187500,46.375
2969,0,14.93,08:52:35.203125,46.390625
2970,0,20.44,08:52:35.218750,46.40625
2971,0,24.0,08:52:35.234375,46.421875
2972,0,25.99,08:52:35.250000,46.4375
2973,0,26.7,08:52:35.265625,46.453125
2974,0,26.38,08:52:35.281250,46.46875
2975,0,25.35,08:52:35.296875,46.484375
2976,0,24.02,08:52:35.312500,46.5
2977,0,22.83,08:52:35.328125,46.515625
2978,0,22.18,08:52:35.343750,46.53125
2979,0,22.21,08:52:35.359375,46.546875
2980,0,22.89,08:52:35.375000,46.5625
2981,0,23.97,08:52:35.390625,46.578125
2982,0,25.08,08:52:35.406250,46.59375
2983,0,25.88,08:52:35.421875,46.609375
2984,0,26.12,08:52:35.437500,46.625
2985,0,25.7,08:52:35.453125,46.640625
2986,0,24.68,08:52:35.468750,46.65625
2987,0,23.24,08:52:35.484375,46.671875
2988,0,21.58,08:52:35.500000,46.6875
2989,0,19.8,08:52:35.515625,46.703125
2990,0,17.87,08:52:35.531250,46.71875
2991,0,15.68,08:52:35.546875,46.734375
2992,0,13.1,08:52:35.562500,46.75
2993,0,10.12,08:52:35.578125,46.765625
2994,0,6.85,08:52:35.593750,46.78125
2995,0,3.48,08:52:35.609375,46.796875
2996,0,0.24,08:52:35.625000,46.8125
2997,0,-2.82,08:52:35.640625,46.828125
2998,0,-5.7,08:52:35.656250,46.84375
2999,0,-8.53,08:52:35.671875,46.859375
3000,0,-11.37,08:52:35.687500,46.875
3001,0,-14.26,08:52:35.703125,46.890625
3002,0,-17.16,08:52:35.718750,46.90625
3003,0,-20.13,08:52:35.734375,46.921875
3004,0,-23.37,08:52:35.750000,46.9375
3005,0,-27.19,08:52:35.765625,46.953125
3006,0,-31.88,08:52:35.781250,46.96875
3007,0,-37.42,08:52:35.796875,46.984375
3008,0,-43.17,08:52:35.812500,47.0
3009,0,-47.96,08:52:35.828125,47.015625
3010,0,-50.3,08:52:35.843750,47.03125
3011,0,-48.97,08:52:35.859375,47.046875
3012,0,-43.48,08:52:35.875000,47.0625
3013,0,-34.39,08:52:35.890625,47.078125
3014,0,-23.07,08:52:35.906250,47.09375
3015,0,-11.28,08:52:35.921875,47.109375
3016,0,-0.53,08:52:35.937500,47.125
3017,0,8.26,08:52:35.953125,47.140625
3018,0,14.83,08:52:35.968750,47.15625
3019,0,19.34,08:52:35.984375,47.171875
3020,0,22.09,08:52:36,47.1875
3021,0,23.28,08:52:36.015625,47.203125
3022,0,23.04,08:52:36.031250,47.21875
3023,0,21.6,08:52:36.046875,47.234375
3024,0,19.36,08:52:36.062500,47.25
3025,0,16.96,08:52:36.078125,47.265625
3026,0,15.06,08:52:36.093750,47.28125
3027,0,14.15,08:52:36.109375,47.296875
3028,0,14.39,08:52:36.125000,47.3125
3029,0,15.6,08:52:36.140625,47.328125
3030,0,17.29,08:52:36.156250,47.34375
3031,0,18.96,08:52:36.171875,47.359375
3032,0,20.2,08:52:36.187500,47.375
3033,0,20.85,08:52:36.203125,47.390625
3034,0,20.96,08:52:36.218750,47.40625
3035,0,20.65,08:52:36.234375,47.421875
3036,0,20.05,08:52:36.250000,47.4375
3037,0,19.14,08:52:36.265625,47.453125
3038,0,17.8,08:52:36.281250,47.46875
3039,0,15.86,08:52:36.296875,47.484375
3040,0,13.23,08:52:36.312500,47.5
3041,0,9.97,08:52:36.328125,47.515625
3042,0,6.34,08:52:36.343750,47.53125
3043,0,2.68,08:52:36.359375,47.546875
3044,0,-0.7,08:52:36.375000,47.5625
3045,0,-3.63,08:52:36.390625,47.578125
3046,0,-6.11,08:52:36.406250,47.59375
3047,0,-8.29,08:52:36.421875,47.609375
3048,0,-10.45,08:52:36.437500,47.625
3049,0,-12.85,08:52:36.453125,47.640625
3050,0,-15.76,08:52:36.468750,47.65625
3051,0,-19.41,08:52:36.484375,47.671875
3052,0,-23.9,08:52:36.500000,47.6875
3053,0,-29.17,08:52:36.515625,47.703125
3054,0,-34.83,08:52:36.531250,47.71875
3055,0,-40.06,08:52:36.546875,47.734375
3056,0,-43.74,08:52:36.562500,47.75
3057,0,-44.69,08:52:36.578125,47.765625
3058,0,-42.09,08:52:36.593750,47.78125
3059,0,-35.79,08:52:36.609375,47.796875
3060,0,-26.47,08:52:36.625000,47.8125
3061,0,-15.45,08:52:36.640625,47.828125
3062,0,-4.3,08:52:36.656250,47.84375
3063,0,5.58,08:52:36.671875,47.859375
3064,0,13.39,08:52:36.687500,47.875
3065,0,18.93,08:52:36.703125,47.890625
3066,0,22.41,08:52:36.718750,47.90625
3067,0,24.23,08:52:36.734375,47.921875
3068,0,24.71,08:52:36.750000,47.9375
3069,0,24.03,08:52:36.765625,47.953125
3070,0,22.33,08:52:36.781250,47.96875
3071,0,19.94,08:52:36.796875,47.984375
3072,0,17.33,08:52:36.812500,48.0
3073,0,15.15,08:52:36.828125,48.015625
3074,0,13.95,08:52:36.843750,48.03125
3075,0,13.98,08:52:36.859375,48.046875
3076,0,15.05,08:52:36.875000,48.0625
3077,0,16.62,08:52:36.890625,48.078125
3078,0,18.05,08:52:36.906250,48.09375
3079,0,18.85,08:52:36.921875,48.109375
3080,0,18.87,08:52:36.937500,48.125
3081,0,18.25,08:52:36.953125,48.140625
3082,0,17.29,08:52:36.968750,48.15625
3083,0,16.17,08:52:36.984375,48.171875
3084,0,14.91,08:52:37,48.1875
3085,0,13.3,08:52:37.015625,48.203125
3086,0,11.1,08:52:37.031250,48.21875
3087,0,8.19,08:52:37.046875,48.234375
3088,0,4.67,08:52:37.062500,48.25
3089,0,0.85,08:52:37.078125,48.265625
3090,0,-2.88,08:52:37.093750,48.28125
3091,0,-6.15,08:52:37.109375,48.296875
3092,0,-8.85,08:52:37.125000,48.3125
3093,0,-11.08,08:52:37.140625,48.328125
3094,0,-13.17,08:52:37.156250,48.34375
3095,0,-15.56,08:52:37.171875,48.359375
3096,0,-18.69,08:52:37.187500,48.375
3097,0,-22.78,08:52:37.203125,48.390625
3098,0,-27.77,08:52:37.218750,48.40625
3099,0,-33.29,08:52:37.234375,48.421875
3100,0,-38.63,08:52:37.250000,48.4375
3101,0,-42.82,08:52:37.265625,48.453125
3102,0,-44.79,08:52:37.281250,48.46875
3103,0,-43.65,08:52:37.296875,48.484375
3104,0,-38.96,08:52:37.312500,48.5
3105,0,-30.92,08:52:37.328125,48.515625
3106,0,-20.45,08:52:37.343750,48.53125
3107,0,-8.89,08:52:37.359375,48.546875
3108,0,2.29,08:52:37.375000,48.5625
3109,0,11.91,08:52:37.390625,48.578125
3110,0,19.32,08:52:37.406250,48.59375
3111,0,24.42,08:52:37.421875,48.609375
3112,0,27.47,08:52:37.437500,48.625
3113,0,28.84,08:52:37.453125,48.640625
3114,0,28.89,08:52:37.468750,48.65625
3115,0,27.95,08:52:37.484375,48.671875
3116,0,26.4,08:52:37.500000,48.6875
3117,0,24.71,08:52:37.515625,48.703125
3118,0,23.46,08:52:37.531250,48.71875
3119,0,23.17,08:52:37.546875,48.734375
3120,0,24.06,08:52:37.562500,48.75
3121,0,26.01,08:52:37.578125,48.765625
3122,0,28.6,08:52:37.593750,48.78125
3123,0,31.26,08:52:37.609375,48.796875
3124,0,33.48,08:52:37.625000,48.8125
3125,0,34.96,08:52:37.640625,48.828125
3126,0,35.57,08:52:37.656250,48.84375
3127,0,35.31,08:52:37.671875,48.859375
3128,0,34.32,08:52:37.687500,48.875
3129,0,32.73,08:52:37.703125,48.890625
3130,0,30.78,08:52:37.718750,48.90625
3131,0,28.77,08:52:37.734375,48.921875
3132,0,26.84,08:52:37.750000,48.9375
3133,0,24.85,08:52:37.765625,48.953125
3134,0,22.3,08:52:37.781250,48.96875
3135,0,18.46,08:52:37.796875,48.984375
3136,0,12.6,08:52:37.812500,49.0
3137,0,4.35,08:52:37.828125,49.015625
3138,0,-6.18,08:52:37.843750,49.03125
3139,0,-18.4,08:52:37.859375,49.046875
3140,0,-31.45,08:52:37.875000,49.0625
3141,0,-44.42,08:52:37.890625,49.078125
3142,0,-56.37,08:52:37.906250,49.09375
3143,0,-66.38,08:52:37.921875,49.109375
3144,0,-73.49,08:52:37.937500,49.125
3145,0,-76.81,08:52:37.953125,49.140625
3146,0,-75.75,08:52:37.968750,49.15625
3147,0,-70.29,08:52:37.984375,49.171875
3148,0,-61.15,08:52:38,49.1875
3149,0,-49.74,08:52:38.015625,49.203125
3150,0,-37.71,08:52:38.031250,49.21875
3151,0,-26.59,08:52:38.046875,49.234375
3152,0,-17.42,08:52:38.062500,49.25
3153,0,-10.6,08:52:38.078125,49.265625
3154,0,-5.99,08:52:38.093750,49.28125
3155,0,-3.21,08:52:38.109375,49.296875
3156,0,-1.79,08:52:38.125000,49.3125
3157,0,-1.4,08:52:38.140625,49.328125
3158,0,-1.7,08:52:38.156250,49.34375
3159,0,-2.4,08:52:38.171875,49.359375
3160,0,-3.13,08:52:38.187500,49.375
3161,0,-3.49,08:52:38.203125,49.390625
3162,0,-3.16,08:52:38.218750,49.40625
3163,0,-2.0,08:52:38.234375,49.421875
3164,0,-0.08,08:52:38.250000,49.4375
3165,0,2.35,08:52:38.265625,49.453125
3166,0,4.97,08:52:38.281250,49.46875
3167,0,7.43,08:52:38.296875,49.484375
3168,0,9.41,08:52:38.312500,49.5
3169,0,10.6,08:52:38.328125,49.515625
3170,0,10.83,08:52:38.343750,49.53125
3171,0,9.99,08:52:38.359375,49.546875
3172,0,8.14,08:52:38.375000,49.5625
3173,0,5.46,08:52:38.390625,49.578125
3174,0,2.2,08:52:38.406250,49.59375
3175,0,-1.34,08:52:38.421875,49.609375
3176,0,-4.89,08:52:38.437500,49.625
3177,0,-8.25,08:52:38.453125,49.640625
3178,0,-11.35,08:52:38.468750,49.65625
3179,0,-14.26,08:52:38.484375,49.671875
3180,0,-17.24,08:52:38.500000,49.6875
3181,0,-20.64,08:52:38.515625,49.703125
3182,0,-24.73,08:52:38.531250,49.71875
3183,0,-29.51,08:52:38.546875,49.734375
3184,0,-34.48,08:52:38.562500,49.75
3185,0,-38.66,08:52:38.578125,49.765625
3186,0,-40.82,08:52:38.593750,49.78125
3187,0,-39.84,08:52:38.609375,49.796875
3188,0,-35.15,08:52:38.625000,49.8125
3189,0,-26.95,08:52:38.640625,49.828125
3190,0,-16.23,08:52:38.656250,49.84375
3191,0,-4.47,08:52:38.671875,49.859375
3192,0,6.73,08:52:38.687500,49.875
3193,0,16.13,08:52:38.703125,49.890625
3194,0,23.01,08:52:38.718750,49.90625
3195,0,27.24,08:52:38.734375,49.921875
3196,0,29.13,08:52:38.750000,49.9375
3197,0,29.19,08:52:38.765625,49.953125
