,subject,bvp,time_elapsed
0,11,0.29,0.0
1,11,0.25,0.015625
2,11,0.18,0.03125
3,11,0.14,0.046875
4,11,0.15,0.0625
5,11,0.25,0.078125
6,11,0.41,0.09375
7,11,0.59,0.109375
8,11,0.7,0.125
9,11,0.7,0.140625
10,11,0.59,0.15625
11,11,0.43,0.171875
12,11,0.33,0.1875
13,11,0.39,0.203125
14,11,0.67,0.21875
15,11,1.11,0.234375
16,11,1.57,0.25
17,11,1.85,0.265625
18,11,1.83,0.28125
19,11,1.5,0.296875
20,11,1.01,0.3125
21,11,0.63,0.328125
22,11,0.64,0.34375
23,11,1.15,0.359375
24,11,2.05,0.375
25,11,3.01,0.390625
26,11,3.61,0.40625
27,11,3.57,0.421875
28,11,2.85,0.4375
29,11,1.77,0.453125
30,11,0.87,0.46875
31,11,0.65,0.484375
32,11,1.37,0.5
33,11,2.84,0.515625
34,11,4.48,0.53125
35,11,5.56,0.546875
36,11,5.57,0.5625
37,11,4.48,0.578125
38,11,2.72,0.59375
39,11,1.12,0.609375
40,11,0.32,0.625
41,11,0.59,0.640625
42,11,1.58,0.65625
43,11,2.5,0.671875
44,11,2.45,0.6875
45,11,0.68,0.703125
46,11,-3.24,0.71875
47,11,-9.54,0.734375
48,11,-17.97,0.75
49,11,-27.66,0.765625
50,11,-36.66,0.78125
51,11,-42.38,0.796875
52,11,-42.26,0.8125
53,11,-35.13,0.828125
54,11,-21.99,0.84375
55,11,-5.95,0.859375
56,11,8.86,0.875
57,11,19.02,0.890625
58,11,23.15,0.90625
59,11,22.19,0.921875
60,11,18.43,0.9375
61,11,14.18,0.953125
62,11,10.71,0.96875
63,11,8.07,0.984375
64,11,5.68,1.0
65,11,3.19,1.015625
66,11,0.9,1.03125
67,11,-0.45,1.046875
68,11,-0.25,1.0625
69,11,1.5,1.078125
70,11,4.16,1.09375
71,11,6.69,1.109375
72,11,8.1,1.125
73,11,7.92,1.140625
74,11,6.34,1.15625
75,11,4.1,1.171875
76,11,2.1,1.1875
77,11,1.05,1.203125
78,11,1.14,1.21875
79,11,1.96,1.234375
80,11,2.75,1.25
81,11,2.71,1.265625
82,11,1.51,1.28125
83,11,-0.63,1.296875
84,11,-3.01,1.3125
85,11,-4.79,1.328125
86,11,-5.46,1.34375
87,11,-5.06,1.359375
88,11,-4.1,1.375
89,11,-3.36,1.390625
90,11,-3.44,1.40625
91,11,-4.48,1.421875
92,11,-6.18,1.4375
93,11,-7.9,1.453125
94,11,-9.08,1.46875
95,11,-9.47,1.484375
96,11,-9.22,1.5
97,11,-8.83,1.515625
98,11,-8.85,1.53125
99,11,-9.62,1.546875
100,11,-11.17,1.5625
101,11,-13.23,1.578125
102,11,-15.33,1.59375
103,11,-17.09,1.609375
104,11,-18.27,1.625
105,11,-18.91,1.640625
106,11,-19.26,1.65625
107,11,-19.76,1.671875
108,11,-20.84,1.6875
109,11,-22.9,1.703125
110,11,-26.07,1.71875
111,11,-30.12,1.734375
112,11,-34.4,1.75
113,11,-37.54,1.765625
114,11,-38.09,1.78125
115,11,-34.85,1.796875
116,11,-27.3,1.8125
117,11,-15.87,1.828125
118,11,-1.92,1.84375
119,11,12.69,1.859375
120,11,26.15,1.875
121,11,37.13,1.890625
122,11,45.06,1.90625
123,11,49.95,1.921875
124,11,52.22,1.9375
125,11,52.36,1.953125
126,11,50.78,1.96875
127,11,47.78,1.984375
128,11,43.66,2.0
129,11,38.81,2.015625
130,11,33.76,2.03125
131,11,29.08,2.046875
132,11,25.22,2.0625
133,11,22.42,2.078125
134,11,20.63,2.09375
135,11,19.64,2.109375
136,11,19.18,2.125
137,11,19.06,2.140625
138,11,19.23,2.15625
139,11,19.66,2.171875
140,11,20.29,2.1875
141,11,20.97,2.203125
142,11,21.45,2.21875
143,11,21.51,2.234375
144,11,20.97,2.25
145,11,19.78,2.265625
146,11,18.02,2.28125
147,11,15.84,2.296875
148,11,13.46,2.3125
149,11,11.1,2.328125
150,11,8.96,2.34375
151,11,7.15,2.359375
152,11,5.6,2.375
153,11,4.09,2.390625
154,11,2.33,2.40625
155,11,0.09,2.421875
156,11,-2.7,2.4375
157,11,-5.84,2.453125
158,11,-9.02,2.46875
159,11,-11.94,2.484375
160,11,-14.48,2.5
161,11,-16.77,2.515625
162,11,-19.18,2.53125
163,11,-22.1,2.546875
164,11,-25.8,2.5625
165,11,-30.25,2.578125
166,11,-35.14,2.59375
167,11,-39.99,2.609375
168,11,-44.41,2.625
169,11,-48.21,2.640625
170,11,-51.49,2.65625
171,11,-54.55,2.671875
172,11,-57.84,2.6875
173,11,-61.78,2.703125
174,11,-66.69,2.71875
175,11,-72.6,2.734375
176,11,-79.15,2.75
177,11,-85.4,2.765625
178,11,-89.88,2.78125
179,11,-90.9,2.796875
180,11,-87.03,2.8125
181,11,-77.7,2.828125
182,11,-63.46,2.84375
183,11,-45.96,2.859375
184,11,-27.38,2.875
185,11,-9.88,2.890625
186,11,5.07,2.90625
187,11,16.85,2.921875
188,11,25.6,2.9375
189,11,31.93,2.953125
190,11,36.52,2.96875
191,11,39.92,2.984375
192,11,42.45,3.0
193,11,44.24,3.015625
194,11,45.34,3.03125
195,11,45.76,3.046875
196,11,45.56,3.0625
197,11,44.84,3.078125
198,11,43.74,3.09375
199,11,42.36,3.109375
200,11,40.83,3.125
201,11,39.28,3.140625
202,11,37.89,3.15625
203,11,36.86,3.171875
204,11,36.38,3.1875
205,11,36.47,3.203125
206,11,36.96,3.21875
207,11,37.51,3.234375
208,11,37.71,3.25
209,11,37.24,3.265625
210,11,36.01,3.28125
211,11,34.16,3.296875
212,11,31.99,3.3125
213,11,29.82,3.328125
214,11,27.87,3.34375
215,11,26.2,3.359375
216,11,24.65,3.375
217,11,22.92,3.390625
218,11,20.71,3.40625
219,11,17.8,3.421875
220,11,14.2,3.4375
221,11,10.17,3.453125
222,11,6.16,3.46875
223,11,2.63,3.484375
224,11,-0.11,3.5
225,11,-2.07,3.515625
226,11,-3.56,3.53125
227,11,-5.12,3.546875
228,11,-7.29,3.5625
229,11,-10.39,3.578125
230,11,-14.43,3.59375
231,11,-19.04,3.609375
232,11,-23.66,3.625
233,11,-27.73,3.640625
234,11,-30.99,3.65625
235,11,-33.53,3.671875
236,11,-35.88,3.6875
237,11,-38.77,3.703125
238,11,-42.88,3.71875
239,11,-48.57,3.734375
240,11,-55.67,3.75
241,11,-63.36,3.765625
242,11,-70.26,3.78125
243,11,-74.7,3.796875
244,11,-75.15,3.8125
245,11,-70.73,3.828125
246,11,-61.49,3.84375
247,11,-48.51,3.859375
248,11,-33.61,3.875
249,11,-18.79,3.890625
250,11,-5.65,3.90625
251,11,4.99,3.921875
252,11,13.09,3.9375
253,11,19.2,3.953125
254,11,24.08,3.96875
255,11,28.32,3.984375
256,11,32.28,4.0
257,11,36.04,4.015625
258,11,39.52,4.03125
259,11,42.61,4.046875
260,11,45.21,4.0625
261,11,47.3,4.078125
262,11,48.86,4.09375
263,11,49.87,4.109375
264,11,50.33,4.125
265,11,50.24,4.140625
266,11,49.7,4.15625
267,11,48.93,4.171875
268,11,48.39,4.1875
269,11,48.59,4.203125
270,11,50.07,4.21875
271,11,53.05,4.234375
272,11,57.37,4.25
273,11,62.35,4.265625
274,11,66.91,4.28125
275,11,69.94,4.296875
276,11,70.59,4.3125
277,11,68.55,4.328125
278,11,64.1,4.34375
279,11,57.92,4.359375
280,11,50.82,4.375
281,11,43.46,4.390625
282,11,36.17,4.40625
283,11,29.07,4.421875
284,11,22.21,4.4375
285,11,15.76,4.453125
286,11,10.12,4.46875
287,11,5.83,4.484375
288,11,3.35,4.5
289,11,2.83,4.515625
290,11,3.92,4.53125
291,11,5.89,4.546875
292,11,7.76,4.5625
293,11,8.71,4.578125
294,11,8.41,4.59375
295,11,7.06,4.609375
296,11,5.33,4.625
297,11,4.0,4.640625
298,11,3.6,4.65625
299,11,4.13,4.671875
300,11,5.09,4.6875
301,11,5.54,4.703125
302,11,4.44,4.71875
303,11,0.91,4.734375
304,11,-5.6,4.75
305,11,-15.12,4.765625
306,11,-27.05,4.78125
307,11,-40.15,4.796875
308,11,-52.72,4.8125
309,11,-62.79,4.828125
310,11,-68.69,4.84375
311,11,-69.42,4.859375
312,11,-65.03,4.875
313,11,-56.55,4.890625
314,11,-45.69,4.90625
315,11,-34.35,4.921875
316,11,-24.07,4.9375
317,11,-15.7,4.953125
318,11,-9.38,4.96875
319,11,-4.73,4.984375
320,11,-1.14,5.0
321,11,1.92,5.015625
322,11,4.79,5.03125
323,11,7.61,5.046875
324,11,10.36,5.0625
325,11,12.97,5.078125
326,11,15.29,5.09375
327,11,17.16,5.109375
328,11,18.39,5.125
329,11,18.8,5.140625
330,11,18.38,5.15625
331,11,17.3,5.171875
332,11,15.93,5.1875
333,11,14.76,5.203125
334,11,14.2,5.21875
335,11,14.45,5.234375
336,11,15.4,5.25
337,11,16.67,5.265625
338,11,17.76,5.28125
339,11,18.25,5.296875
340,11,17.95,5.3125
341,11,16.95,5.328125
342,11,15.55,5.34375
343,11,14.05,5.359375
344,11,12.66,5.375
345,11,11.36,5.390625
346,11,9.96,5.40625
347,11,8.24,5.421875
348,11,6.14,5.4375
349,11,3.76,5.453125
350,11,1.33,5.46875
351,11,-0.89,5.484375
352,11,-2.87,5.5
353,11,-4.74,5.515625
354,11,-6.78,5.53125
355,11,-9.26,5.546875
356,11,-12.31,5.5625
357,11,-15.91,5.578125
358,11,-19.88,5.59375
359,11,-23.92,5.609375
360,11,-27.7,5.625
361,11,-30.96,5.640625
362,11,-33.54,5.65625
363,11,-35.44,5.671875
364,11,-36.88,5.6875
365,11,-38.29,5.703125
366,11,-40.17,5.71875
367,11,-42.92,5.734375
368,11,-46.6,5.75
369,11,-50.72,5.765625
370,11,-54.27,5.78125
371,11,-55.93,5.796875
372,11,-54.51,5.8125
373,11,-49.4,5.828125
374,11,-40.84,5.84375
375,11,-29.87,5.859375
376,11,-18.0,5.875
377,11,-6.76,5.890625
378,11,2.81,5.90625
379,11,10.24,5.921875
380,11,15.65,5.9375
381,11,19.34,5.953125
382,11,21.64,5.96875
383,11,22.79,5.984375
384,11,22.87,6.0
385,11,22.01,6.015625
386,11,20.38,6.03125
387,11,18.27,6.046875
388,11,16.01,6.0625
389,11,13.92,6.078125
390,11,12.32,6.09375
391,11,11.44,6.109375
392,11,11.43,6.125
393,11,12.27,6.140625
394,11,13.82,6.15625
395,11,15.82,6.171875
396,11,17.96,6.1875
397,11,19.95,6.203125
398,11,21.56,6.21875
399,11,22.61,6.234375
400,11,22.91,6.25
401,11,22.32,6.265625
402,11,20.81,6.28125
403,11,18.48,6.296875
404,11,15.7,6.3125
405,11,12.9,6.328125
406,11,10.47,6.34375
407,11,8.57,6.359375
408,11,7.05,6.375
409,11,5.62,6.390625
410,11,3.94,6.40625
411,11,1.84,6.421875
412,11,-0.63,6.4375
413,11,-3.25,6.453125
414,11,-5.77,6.46875
415,11,-8.0,6.484375
416,11,-9.93,6.5
417,11,-11.74,6.515625
418,11,-13.73,6.53125
419,11,-16.17,6.546875
420,11,-19.2,6.5625
421,11,-22.69,6.578125
422,11,-26.27,6.59375
423,11,-29.5,6.609375
424,11,-32.01,6.625
425,11,-33.74,6.640625
426,11,-34.96,6.65625
427,11,-36.18,6.671875
428,11,-37.94,6.6875
429,11,-40.63,6.703125
430,11,-44.33,6.71875
431,11,-48.8,6.734375
432,11,-53.41,6.75
433,11,-57.3,6.765625
434,11,-59.44,6.78125
435,11,-58.84,6.796875
436,11,-54.89,6.8125
437,11,-47.51,6.828125
438,11,-37.35,6.84375
439,11,-25.58,6.859375
440,11,-13.64,6.875
441,11,-2.78,6.890625
442,11,6.26,6.90625
443,11,13.28,6.921875
444,11,18.55,6.9375
445,11,22.51,6.953125
446,11,25.52,6.96875
447,11,27.77,6.984375
448,11,29.31,7.0
449,11,30.17,7.015625
450,11,30.39,7.03125
451,11,30.1,7.046875
452,11,29.45,7.0625
453,11,28.54,7.078125
454,11,27.45,7.09375
455,11,26.24,7.109375
456,11,25.03,7.125
457,11,23.96,7.140625
458,11,23.23,7.15625
459,11,22.92,7.171875
460,11,23.07,7.1875
461,11,23.58,7.203125
462,11,24.29,7.21875
463,11,24.98,7.234375
464,11,25.42,7.25
465,11,25.41,7.265625
466,11,24.84,7.28125
467,11,23.72,7.296875
468,11,22.16,7.3125
469,11,20.36,7.328125
470,11,18.51,7.34375
471,11,16.74,7.359375
472,11,15.06,7.375
473,11,13.41,7.390625
474,11,11.69,7.40625
475,11,9.84,7.421875
476,11,7.82,7.4375
477,11,5.69,7.453125
478,11,3.51,7.46875
479,11,1.41,7.484375
480,11,-0.58,7.5
481,11,-2.42,7.515625
482,11,-4.18,7.53125
483,11,-5.95,7.546875
484,11,-7.85,7.5625
485,11,-9.93,7.578125
486,11,-12.19,7.59375
487,11,-14.58,7.609375
488,11,-16.98,7.625
489,11,-19.35,7.640625
490,11,-21.65,7.65625
491,11,-23.92,7.671875
492,11,-26.16,7.6875
493,11,-28.38,7.703125
494,11,-30.56,7.71875
495,11,-32.73,7.734375
496,11,-35.02,7.75
497,11,-37.66,7.765625
498,11,-40.89,7.78125
499,11,-44.72,7.796875
500,11,-48.76,7.8125
501,11,-52.14,7.828125
502,11,-53.66,7.84375
503,11,-52.18,7.859375
504,11,-47.06,7.875
505,11,-38.49,7.890625
506,11,-27.47,7.90625
507,11,-15.51,7.921875
508,11,-4.14,7.9375
509,11,5.57,7.953125
510,11,13.16,7.96875
511,11,18.79,7.984375
512,11,22.88,8.0
513,11,25.92,8.015625
514,11,28.21,8.03125
515,11,29.84,8.046875
516,11,30.81,8.0625
517,11,31.1,8.078125
518,11,30.77,8.09375
519,11,29.92,8.109375
520,11,28.75,8.125
521,11,27.44,8.140625
522,11,26.11,8.15625
523,11,24.86,8.171875
524,11,23.74,8.1875
525,11,22.8,8.203125
526,11,22.09,8.21875
527,11,21.69,8.234375
528,11,21.59,8.25
529,11,21.76,8.265625
530,11,22.07,8.28125
531,11,22.3,8.296875
532,11,22.29,8.3125
533,11,21.92,8.328125
534,11,21.19,8.34375
535,11,20.19,8.359375
536,11,19.05,8.375
537,11,17.84,8.390625
538,11,16.59,8.40625
539,11,15.27,8.421875
540,11,13.86,8.4375
541,11,12.34,8.453125
542,11,10.72,8.46875
543,11,9.01,8.484375
544,11,7.21,8.5
545,11,5.33,8.515625
546,11,3.37,8.53125
547,11,1.38,8.546875
548,11,-0.58,8.5625
549,11,-2.47,8.578125
550,11,-4.26,8.59375
551,11,-5.97,8.609375
552,11,-7.66,8.625
553,11,-9.38,8.640625
554,11,-11.2,8.65625
555,11,-13.18,8.671875
556,11,-15.39,8.6875
557,11,-17.85,8.703125
558,11,-20.47,8.71875
559,11,-23.06,8.734375
560,11,-25.4,8.75
561,11,-27.3,8.765625
562,11,-28.76,8.78125
563,11,-30.01,8.796875
564,11,-31.47,8.8125
565,11,-33.63,8.828125
566,11,-36.73,8.84375
567,11,-40.61,8.859375
568,11,-44.67,8.875
569,11,-47.88,8.890625
570,11,-49.11,8.90625
571,11,-47.48,8.921875
572,11,-42.63,8.9375
573,11,-34.84,8.953125
574,11,-25.01,8.96875
575,11,-14.35,8.984375
576,11,-4.08,9.0
577,11,4.83,9.015625
578,11,11.86,9.03125
579,11,16.86,9.046875
580,11,20.05,9.0625
581,11,21.81,9.078125
582,11,22.56,9.09375
583,11,22.69,9.109375
584,11,22.48,9.125
585,11,22.06,9.140625
586,11,21.43,9.15625
587,11,20.55,9.171875
588,11,19.45,9.1875
589,11,18.22,9.203125
590,11,17.07,9.21875
591,11,16.19,9.234375
592,11,15.7,9.25
593,11,15.6,9.265625
594,11,15.8,9.28125
595,11,16.21,9.296875
596,11,16.77,9.3125
597,11,17.38,9.328125
598,11,17.96,9.34375
599,11,18.34,9.359375
600,11,18.29,9.375
601,11,17.62,9.390625
602,11,16.35,9.40625
603,11,14.64,9.421875
604,11,12.78,9.4375
605,11,11.06,9.453125
606,11,9.64,9.46875
607,11,8.5,9.484375
608,11,7.48,9.5
609,11,6.38,9.515625
610,11,5.04,9.53125
611,11,3.4,9.546875
612,11,1.53,9.5625
613,11,-0.43,9.578125
614,11,-2.35,9.59375
615,11,-4.13,9.609375
616,11,-5.8,9.625
617,11,-7.44,9.640625
618,11,-9.21,9.65625
619,11,-11.25,9.671875
620,11,-13.58,9.6875
621,11,-16.16,9.703125
622,11,-18.82,9.71875
623,11,-21.39,9.734375
624,11,-23.7,9.75
625,11,-25.66,9.765625
626,11,-27.32,9.78125
627,11,-28.81,9.796875
628,11,-30.42,9.8125
629,11,-32.47,9.828125
630,11,-35.2,9.84375
631,11,-38.69,9.859375
632,11,-42.7,9.875
633,11,-46.67,9.890625
634,11,-49.74,9.90625
635,11,-50.98,9.921875
636,11,-49.62,9.9375
637,11,-45.28,9.953125
638,11,-38.15,9.96875
639,11,-28.93,9.984375
640,11,-18.67,10.0
641,11,-8.49,10.015625
642,11,0.66,10.03125
643,11,8.25,10.046875
644,11,14.07,10.0625
645,11,18.2,10.078125
646,11,20.9,10.09375
647,11,22.44,10.109375
648,11,23.04,10.125
649,11,22.91,10.140625
650,11,22.26,10.15625
651,11,21.28,10.171875
652,11,20.17,10.1875
653,11,19.06,10.203125
654,11,18.06,10.21875
655,11,17.18,10.234375
656,11,16.44,10.25
657,11,15.86,10.265625
658,11,15.5,10.28125
659,11,15.47,10.296875
660,11,15.78,10.3125
661,11,16.39,10.328125
662,11,17.11,10.34375
663,11,17.75,10.359375
664,11,18.11,10.375
665,11,18.07,10.390625
666,11,17.59,10.40625
667,11,16.64,10.421875
668,11,15.28,10.4375
669,11,13.59,10.453125
670,11,11.74,10.46875
671,11,9.95,10.484375
672,11,8.4,10.5
673,11,7.17,10.515625
674,11,6.11,10.53125
675,11,4.98,10.546875
676,11,3.55,10.5625
677,11,1.75,10.578125
678,11,-0.21,10.59375
679,11,-2.04,10.609375
680,11,-3.47,10.625
681,11,-4.54,10.640625
682,11,-5.53,10.65625
683,11,-6.89,10.671875
684,11,-8.95,10.6875
685,11,-11.74,10.703125
686,11,-15.0,10.71875
687,11,-18.28,10.734375
688,11,-21.21,10.75
689,11,-23.62,10.765625
690,11,-25.65,10.78125
691,11,-27.57,10.796875
692,11,-29.77,10.8125
693,11,-32.58,10.828125
694,11,-36.17,10.84375
695,11,-40.58,10.859375
696,11,-45.52,10.875
697,11,-50.29,10.890625
698,11,-53.84,10.90625
699,11,-54.98,10.921875
700,11,-52.77,10.9375
701,11,-46.95,10.953125
702,11,-38.06,10.96875
703,11,-27.36,10.984375
704,11,-16.36,11.0
705,11,-6.3,11.015625
706,11,2.12,11.03125
707,11,8.79,11.046875
708,11,13.95,11.0625
709,11,17.9,11.078125
710,11,20.78,11.09375
711,11,22.65,11.109375
712,11,23.55,11.125
713,11,23.67,11.140625
714,11,23.26,11.15625
715,11,22.6,11.171875
716,11,21.83,11.1875
717,11,21.01,11.203125
718,11,20.11,11.21875
719,11,19.17,11.234375
720,11,18.4,11.25
721,11,18.04,11.265625
722,11,18.3,11.28125
723,11,19.21,11.296875
724,11,20.49,11.3125
725,11,21.74,11.328125
726,11,22.54,11.34375
727,11,22.72,11.359375
728,11,22.26,11.375
729,11,21.37,11.390625
730,11,20.26,11.40625
731,11,19.07,11.421875
732,11,17.79,11.4375
733,11,16.36,11.453125
734,11,14.71,11.46875
735,11,12.82,11.484375
736,11,10.75,11.5
737,11,8.54,11.515625
738,11,6.26,11.53125
739,11,3.9,11.546875
740,11,1.43,11.5625
741,11,-1.16,11.578125
742,11,-3.89,11.59375
743,11,-6.76,11.609375
744,11,-9.73,11.625
745,11,-12.75,11.640625
746,11,-15.8,11.65625
747,11,-18.84,11.671875
748,11,-21.82,11.6875
749,11,-24.66,11.703125
750,11,-27.26,11.71875
751,11,-29.58,11.734375
752,11,-31.67,11.75
753,11,-33.81,11.765625
754,11,-36.4,11.78125
755,11,-39.81,11.796875
756,11,-44.05,11.8125
757,11,-48.67,11.828125
758,11,-52.69,11.84375
759,11,-54.87,11.859375
760,11,-54.08,11.875
761,11,-49.72,11.890625
762,11,-41.94,11.90625
763,11,-31.62,11.921875
764,11,-20.14,11.9375
765,11,-8.87,11.953125
766,11,1.12,11.96875
767,11,9.29,11.984375
768,11,15.61,12.0
769,11,20.33,12.015625
770,11,23.78,12.03125
771,11,26.13,12.046875
772,11,27.45,12.0625
773,11,27.74,12.078125
774,11,27.18,12.09375
775,11,26.12,12.109375
776,11,25.0,12.125
777,11,24.21,12.140625
778,11,23.83,12.15625
779,11,23.69,12.171875
780,11,23.46,12.1875
781,11,22.9,12.203125
782,11,22.01,12.21875
783,11,21.01,12.234375
784,11,20.22,12.25
785,11,19.88,12.265625
786,11,20.04,12.28125
787,11,20.51,12.296875
788,11,20.97,12.3125
789,11,21.06,12.328125
790,11,20.5,12.34375
791,11,19.19,12.359375
792,11,17.17,12.375
793,11,14.62,12.390625
794,11,11.8,12.40625
795,11,9.0,12.421875
796,11,6.45,12.4375
797,11,4.24,12.453125
798,11,2.32,12.46875
799,11,0.51,12.484375
800,11,-1.46,12.5
801,11,-3.77,12.515625
802,11,-6.55,12.53125
803,11,-9.72,12.546875
804,11,-13.11,12.5625
805,11,-16.47,12.578125
806,11,-19.63,12.59375
807,11,-22.52,12.609375
808,11,-25.25,12.625
809,11,-28.01,12.640625
810,11,-31.1,12.65625
811,11,-34.74,12.671875
812,11,-39.03,12.6875
813,11,-43.79,12.703125
814,11,-48.44,12.71875
815,11,-52.03,12.734375
816,11,-53.41,12.75
817,11,-51.58,12.765625
818,11,-46.05,12.78125
819,11,-37.11,12.796875
820,11,-25.76,12.8125
821,11,-13.46,12.828125
822,11,-1.62,12.84375
823,11,8.74,12.859375
824,11,17.18,12.875
825,11,23.7,12.890625
826,11,28.51,12.90625
827,11,31.81,12.921875
828,11,33.72,12.9375
829,11,34.34,12.953125
830,11,33.89,12.96875
831,11,32.69,12.984375
832,11,31.14,13.0
833,11,29.58,13.015625
834,11,28.21,13.03125
835,11,27.1,13.046875
836,11,26.2,13.0625
837,11,25.49,13.078125
838,11,24.98,13.09375
839,11,24.75,13.109375
840,11,24.85,13.125
841,11,25.24,13.140625
842,11,25.78,13.15625
843,11,26.24,13.171875
844,11,26.35,13.1875
845,11,25.91,13.203125
846,11,24.86,13.21875
847,11,23.28,13.234375
848,11,21.4,13.25
849,11,19.46,13.265625
850,11,17.67,13.28125
851,11,16.02,13.296875
852,11,14.41,13.3125
853,11,12.63,13.328125
854,11,10.59,13.34375
855,11,8.29,13.359375
856,11,5.88,13.375
857,11,3.48,13.390625
858,11,1.12,13.40625
859,11,-1.3,13.421875
860,11,-3.94,13.4375
861,11,-6.83,13.453125
862,11,-9.92,13.46875
863,11,-12.98,13.484375
864,11,-15.82,13.5
865,11,-18.38,13.515625
866,11,-20.78,13.53125
867,11,-23.27,13.546875
868,11,-26.1,13.5625
869,11,-29.48,13.578125
870,11,-33.56,13.59375
871,11,-38.35,13.609375
872,11,-43.72,13.625
873,11,-49.22,13.640625
874,11,-53.97,13.65625
875,11,-56.78,13.671875
876,11,-56.38,13.6875
877,11,-51.92,13.703125
878,11,-43.35,13.71875
879,11,-31.56,13.734375
880,11,-18.14,13.75
881,11,-4.87,13.765625
882,11,6.79,13.78125
883,11,16.07,13.796875
884,11,22.85,13.8125
885,11,27.49,13.828125
886,11,30.41,13.84375
887,11,31.93,13.859375
888,11,32.21,13.875
889,11,31.41,13.890625
890,11,29.77,13.90625
891,11,27.66,13.921875
892,11,25.47,13.9375
893,11,23.54,13.953125
894,11,22.0,13.96875
895,11,20.89,13.984375
896,11,20.18,14.0
897,11,19.88,14.015625
898,11,20.07,14.03125
899,11,20.81,14.046875
900,11,22.03,14.0625
901,11,23.5,14.078125
902,11,24.88,14.09375
903,11,25.79,14.109375
904,11,26.02,14.125
905,11,25.49,14.140625
906,11,24.32,14.15625
907,11,22.7,14.171875
908,11,20.81,14.1875
909,11,18.73,14.203125
910,11,16.52,14.21875
911,11,14.17,14.234375
912,11,11.69,14.25
913,11,9.11,14.265625
914,11,6.57,14.28125
915,11,4.18,14.296875
916,11,2.02,14.3125
917,11,0.11,14.328125
918,11,-1.64,14.34375
919,11,-3.38,14.359375
920,11,-5.24,14.375
921,11,-7.26,14.390625
922,11,-9.42,14.40625
923,11,-11.63,14.421875
924,11,-13.84,14.4375
925,11,-16.02,14.453125
926,11,-18.23,14.46875
927,11,-20.55,14.484375
928,11,-23.04,14.5
929,11,-25.78,14.515625
930,11,-28.87,14.53125
931,11,-32.39,14.546875
932,11,-36.28,14.5625
933,11,-40.22,14.578125
934,11,-43.49,14.59375
935,11,-45.05,14.609375
936,11,-43.83,14.625
937,11,-39.13,14.640625
938,11,-30.92,14.65625
939,11,-19.97,14.671875
940,11,-7.66,14.6875
941,11,4.44,14.703125
942,11,15.05,14.71875
943,11,23.47,14.734375
944,11,29.57,14.75
945,11,33.57,14.765625
946,11,35.8,14.78125
947,11,36.47,14.796875
948,11,35.76,14.8125
949,11,33.9,14.828125
950,11,31.32,14.84375
951,11,28.54,14.859375
952,11,26.09,14.875
953,11,24.28,14.890625
954,11,23.14,14.90625
955,11,22.44,14.921875
956,11,21.93,14.9375
957,11,21.5,14.953125
958,11,21.18,14.96875
959,11,21.07,14.984375
960,11,21.23,15.0
961,11,21.54,15.015625
962,11,21.79,15.03125
963,11,21.74,15.046875
964,11,21.26,15.0625
965,11,20.37,15.078125
966,11,19.17,15.09375
967,11,17.75,15.109375
968,11,16.18,15.125
969,11,14.39,15.140625
970,11,12.32,15.15625
971,11,9.94,15.171875
972,11,7.33,15.1875
973,11,4.7,15.203125
974,11,2.31,15.21875
975,11,0.33,15.234375
976,11,-1.29,15.25
977,11,-2.85,15.265625
978,11,-4.8,15.28125
979,11,-7.51,15.296875
980,11,-11.13,15.3125
981,11,-15.42,15.328125
982,11,-19.88,15.34375
983,11,-23.97,15.359375
984,11,-27.32,15.375
985,11,-29.91,15.390625
986,11,-31.99,15.40625
987,11,-34.04,15.421875
988,11,-36.59,15.4375
989,11,-40.01,15.453125
990,11,-44.47,15.46875
991,11,-49.81,15.484375
992,11,-55.48,15.5
993,11,-60.54,15.515625
994,11,-63.79,15.53125
995,11,-64.05,15.546875
996,11,-60.49,15.5625
997,11,-52.96,15.578125
998,11,-42.1,15.59375
999,11,-29.21,15.609375
1000,11,-15.83,15.625
1001,11,-3.34,15.640625
1002,11,7.37,15.65625
1003,11,15.96,15.671875
1004,11,22.53,15.6875
1005,11,27.35,15.703125
1006,11,30.7,15.71875
1007,11,32.78,15.734375
1008,11,33.78,15.75
1009,11,33.94,15.765625
1010,11,33.54,15.78125
1011,11,32.83,15.796875
1012,11,31.97,15.8125
1013,11,30.98,15.828125
1014,11,29.88,15.84375
1015,11,28.68,15.859375
1016,11,27.54,15.875
1017,11,26.69,15.890625
1018,11,26.33,15.90625
1019,11,26.53,15.921875
1020,11,27.16,15.9375
1021,11,27.97,15.953125
1022,11,28.64,15.96875
1023,11,28.91,15.984375
1024,11,28.59,16.0
1025,11,27.69,16.015625
1026,11,26.3,16.03125
1027,11,24.65,16.046875
1028,11,22.93,16.0625
1029,11,21.29,16.078125
1030,11,19.71,16.09375
1031,11,18.02,16.109375
1032,11,15.99,16.125
1033,11,13.44,16.140625
1034,11,10.42,16.15625
1035,11,7.12,16.171875
1036,11,3.88,16.1875
1037,11,1.02,16.203125
1038,11,-1.35,16.21875
1039,11,-3.31,16.234375
1040,11,-5.12,16.25
1041,11,-7.1,16.265625
1042,11,-9.48,16.28125
1043,11,-12.32,16.296875
1044,11,-15.46,16.3125
1045,11,-18.63,16.328125
1046,11,-21.53,16.34375
1047,11,-23.98,16.359375
1048,11,-26.01,16.375
1049,11,-27.86,16.390625
1050,11,-29.91,16.40625
1051,11,-32.56,16.421875
1052,11,-36.13,16.4375
1053,11,-40.66,16.453125
1054,11,-45.86,16.46875
1055,11,-51.02,16.484375
1056,11,-55.08,16.5
1057,11,-56.83,16.515625
1058,11,-55.22,16.53125
1059,11,-49.75,16.546875
1060,11,-40.68,16.5625
1061,11,-29.08,16.578125
1062,11,-16.49,16.59375
1063,11,-4.45,16.609375
1064,11,5.89,16.625
1065,11,14.08,16.640625
1066,11,20.24,16.65625
1067,11,24.86,16.671875
1068,11,28.38,16.6875
1069,11,31.12,16.703125
1070,11,33.15,16.71875
1071,11,34.41,16.734375
1072,11,34.91,16.75
1073,11,34.71,16.765625
1074,11,33.99,16.78125
1075,11,32.95,16.796875
1076,11,31.72,16.8125
1077,11,30.33,16.828125
1078,11,28.81,16.84375
1079,11,27.27,16.859375
1080,11,25.89,16.875
1081,11,24.92,16.890625
1082,11,24.53,16.90625
1083,11,24.67,16.921875
1084,11,25.04,16.9375
1085,11,25.21,16.953125
1086,11,24.81,16.96875
1087,11,23.75,16.984375
1088,11,22.21,17.0
1089,11,20.56,17.015625
1090,11,19.18,17.03125
1091,11,18.2,17.046875
1092,11,17.52,17.0625
1093,11,16.88,17.078125
1094,11,16.0,17.09375
1095,11,14.72,17.109375
1096,11,13.02,17.125
1097,11,10.94,17.140625
1098,11,8.53,17.15625
1099,11,5.84,17.171875
1100,11,2.94,17.1875
1101,11,0.04,17.203125
1102,11,-2.62,17.21875
1103,11,-4.81,17.234375
1104,11,-6.53,17.25
1105,11,-8.05,17.265625
1106,11,-9.75,17.28125
1107,11,-12.02,17.296875
1108,11,-14.98,17.3125
1109,11,-18.45,17.328125
1110,11,-22.01,17.34375
1111,11,-25.19,17.359375
1112,11,-27.71,17.375
1113,11,-29.6,17.390625
1114,11,-31.18,17.40625
1115,11,-32.94,17.421875
1116,11,-35.37,17.4375
1117,11,-38.75,17.453125
1118,11,-43.09,17.46875
1119,11,-47.91,17.484375
1120,11,-52.3,17.5
1121,11,-55.04,17.515625
1122,11,-54.95,17.53125
1123,11,-51.26,17.546875
1124,11,-44.0,17.5625
1125,11,-33.99,17.578125
1126,11,-22.61,17.59375
1127,11,-11.28,17.609375
1128,11,-1.08,17.625
1129,11,7.52,17.640625
1130,11,14.52,17.65625
1131,11,20.1,17.671875
1132,11,24.39,17.6875
1133,11,27.38,17.703125
1134,11,29.03,17.71875
1135,11,29.45,17.734375
1136,11,29.01,17.75
1137,11,28.21,17.765625
1138,11,27.52,17.78125
1139,11,27.13,17.796875
1140,11,26.95,17.8125
1141,11,26.73,17.828125
1142,11,26.21,17.84375
1143,11,25.36,17.859375
1144,11,24.32,17.875
1145,11,23.35,17.890625
1146,11,22.71,17.90625
1147,11,22.46,17.921875
1148,11,22.5,17.9375
1149,11,22.56,17.953125
1150,11,22.42,17.96875
1151,11,21.92,17.984375
1152,11,21.04,18.0
1153,11,19.88,18.015625
1154,11,18.52,18.03125
1155,11,17.1,18.046875
1156,11,15.59,18.0625
1157,11,13.99,18.078125
1158,11,12.21,18.09375
1159,11,10.23,18.109375
1160,11,8.03,18.125
1161,11,5.71,18.140625
1162,11,3.4,18.15625
1163,11,1.27,18.171875
1164,11,-0.56,18.1875
1165,11,-2.03,18.203125
1166,11,-3.16,18.21875
1167,11,-4.08,18.234375
1168,11,-5.0,18.25
1169,11,-6.14,18.265625
1170,11,-7.67,18.28125
1171,11,-9.63,18.296875
1172,11,-11.92,18.3125
1173,11,-14.31,18.328125
1174,11,-16.49,18.34375
1175,11,-18.25,18.359375
1176,11,-19.56,18.375
1177,11,-20.64,18.390625
1178,11,-21.87,18.40625
1179,11,-23.72,18.421875
1180,11,-26.51,18.4375
1181,11,-30.26,18.453125
1182,11,-34.54,18.46875
1183,11,-38.51,18.484375
1184,11,-41.13,18.5
1185,11,-41.38,18.515625
1186,11,-38.62,18.53125
1187,11,-32.79,18.546875
1188,11,-24.46,18.5625
1189,11,-14.65,18.578125
1190,11,-4.59,18.59375
1191,11,4.63,18.609375
1192,11,12.25,18.625
1193,11,17.93,18.640625
1194,11,21.72,18.65625
1195,11,23.82,18.671875
1196,11,24.57,18.6875
1197,11,24.26,18.703125
1198,11,23.12,18.71875
1199,11,21.34,18.734375
1200,11,19.14,18.75
1201,11,16.81,18.765625
1202,11,14.74,18.78125
1203,11,13.29,18.796875
1204,11,12.7,18.8125
1205,11,12.94,18.828125
1206,11,13.78,18.84375
1207,11,14.83,18.859375
1208,11,15.77,18.875
1209,11,16.45,18.890625
1210,11,16.9,18.90625
1211,11,17.25,18.921875
1212,11,17.57,18.9375
1213,11,17.76,18.953125
1214,11,17.63,18.96875
1215,11,17.01,18.984375
1216,11,15.82,19.0
1217,11,14.2,19.015625
1218,11,12.44,19.03125
1219,11,10.78,19.046875
1220,11,9.37,19.0625
1221,11,8.13,19.078125
1222,11,6.84,19.09375
1223,11,5.28,19.109375
1224,11,3.34,19.125
1225,11,1.12,19.140625
1226,11,-1.13,19.15625
1227,11,-3.12,19.171875
1228,11,-4.76,19.1875
1229,11,-6.13,19.203125
1230,11,-7.54,19.21875
1231,11,-9.3,19.234375
1232,11,-11.58,19.25
1233,11,-14.33,19.265625
1234,11,-17.26,19.28125
1235,11,-20.08,19.296875
1236,11,-22.61,19.3125
1237,11,-24.9,19.328125
1238,11,-27.16,19.34375
1239,11,-29.64,19.359375
1240,11,-32.56,19.375
1241,11,-35.97,19.390625
1242,11,-39.87,19.40625
1243,11,-44.12,19.421875
1244,11,-48.44,19.4375
1245,11,-52.32,19.453125
1246,11,-54.92,19.46875
1247,11,-55.28,19.484375
1248,11,-52.58,19.5
1249,11,-46.47,19.515625
1250,11,-37.37,19.53125
1251,11,-26.35,19.546875
1252,11,-14.91,19.5625
1253,11,-4.4,19.578125
1254,11,4.31,19.59375
1255,11,10.98,19.609375
1256,11,15.91,19.625
1257,11,19.64,19.640625
1258,11,22.62,19.65625
1259,11,25.09,19.671875
1260,11,27.06,19.6875
1261,11,28.42,19.703125
1262,11,29.07,19.71875
1263,11,29.04,19.734375
1264,11,28.45,19.75
1265,11,27.53,19.765625
1266,11,26.5,19.78125
1267,11,25.47,19.796875
1268,11,24.53,19.8125
1269,11,23.67,19.828125
1270,11,22.97,19.84375
1271,11,22.47,19.859375
1272,11,22.25,19.875
1273,11,22.32,19.890625
1274,11,22.59,19.90625
1275,11,22.87,19.921875
1276,11,22.95,19.9375
1277,11,22.65,19.953125
1278,11,21.94,19.96875
1279,11,20.92,19.984375
1280,11,19.72,20.0
1281,11,18.49,20.015625
1282,11,17.23,20.03125
1283,11,15.89,20.046875
1284,11,14.38,20.0625
1285,11,12.59,20.078125
1286,11,10.48,20.09375
1287,11,8.1,20.109375
1288,11,5.56,20.125
1289,11,3.01,20.140625
1290,11,0.6,20.15625
1291,11,-1.52,20.171875
1292,11,-3.28,20.1875
1293,11,-4.72,20.203125
1294,11,-6.0,20.21875
1295,11,-7.31,20.234375
1296,11,-8.89,20.25
1297,11,-10.84,20.265625
1298,11,-13.19,20.28125
1299,11,-15.82,20.296875
1300,11,-18.56,20.3125
1301,11,-21.24,20.328125
1302,11,-23.7,20.34375
1303,11,-25.86,20.359375
1304,11,-27.76,20.375
1305,11,-29.55,20.390625
1306,11,-31.49,20.40625
1307,11,-33.91,20.421875
1308,11,-37.05,20.4375
1309,11,-40.85,20.453125
1310,11,-44.82,20.46875
1311,11,-48.02,20.484375
1312,11,-49.31,20.5
1313,11,-47.72,20.515625
1314,11,-42.86,20.53125
1315,11,-35.1,20.546875
1316,11,-25.49,20.5625
1317,11,-15.38,20.578125
1318,11,-5.99,20.59375
1319,11,1.89,20.609375
1320,11,8.06,20.625
1321,11,12.71,20.640625
1322,11,16.21,20.65625
1323,11,18.85,20.671875
1324,11,20.83,20.6875
1325,11,22.2,20.703125
1326,11,22.98,20.71875
1327,11,23.25,20.734375
1328,11,23.03,20.75
1329,11,22.42,20.765625
1330,11,21.48,20.78125
1331,11,20.25,20.796875
1332,11,18.79,20.8125
1333,11,17.22,20.828125
1334,11,15.68,20.84375
1335,11,14.38,20.859375
1336,11,13.5,20.875
1337,11,13.11,20.890625
1338,11,13.18,20.90625
1339,11,13.48,20.921875
1340,11,13.69,20.9375
1341,11,13.52,20.953125
1342,11,12.76,20.96875
1343,11,11.42,20.984375
1344,11,9.63,21.0
1345,11,7.65,21.015625
1346,11,5.7,21.03125
1347,11,3.95,21.046875
1348,11,2.47,21.0625
1349,11,1.25,21.078125
1350,11,0.23,21.09375
1351,11,-0.71,21.109375
1352,11,-1.73,21.125
1353,11,-2.97,21.140625
1354,11,-4.54,21.15625
1355,11,-6.42,21.171875
1356,11,-8.43,21.1875
1357,11,-10.34,21.203125
1358,11,-11.87,21.21875
1359,11,-12.89,21.234375
1360,11,-13.45,21.25
1361,11,-13.79,21.265625
1362,11,-14.25,21.28125
1363,11,-15.14,21.296875
1364,11,-16.66,21.3125
1365,11,-18.8,21.328125
1366,11,-21.42,21.34375
1367,11,-24.31,21.359375
1368,11,-27.23,21.375
1369,11,-30.07,21.390625
1370,11,-32.83,21.40625
1371,11,-35.65,21.421875
1372,11,-38.71,21.4375
1373,11,-42.19,21.453125
1374,11,-46.1,21.46875
1375,11,-50.27,21.484375
1376,11,-54.27,21.5
1377,11,-57.54,21.515625
1378,11,-59.44,21.53125
1379,11,-59.44,21.546875
1380,11,-57.25,21.5625
1381,11,-52.94,21.578125
1382,11,-46.96,21.59375
1383,11,-40.01,21.609375
1384,11,-32.87,21.625
1385,11,-26.15,21.640625
1386,11,-20.16,21.65625
1387,11,-14.87,21.671875
1388,11,-10.08,21.6875
1389,11,-5.63,21.703125
1390,11,-1.57,21.71875
1391,11,1.95,21.734375
1392,11,4.73,21.75
1393,11,6.81,21.765625
1394,11,8.53,21.78125
1395,11,10.44,21.796875
1396,11,13.06,21.8125
1397,11,16.66,21.828125
1398,11,21.21,21.84375
1399,11,26.39,21.859375
1400,11,31.86,21.875
1401,11,37.26,21.890625
1402,11,42.42,21.90625
1403,11,47.24,21.921875
1404,11,51.73,21.9375
1405,11,55.91,21.953125
1406,11,59.85,21.96875
1407,11,63.64,21.984375
1408,11,67.36,22.0
1409,11,71.08,22.015625
1410,11,74.92,22.03125
1411,11,78.99,22.046875
1412,11,83.38,22.0625
1413,11,88.05,22.078125
1414,11,92.69,22.09375
1415,11,96.68,22.109375
1416,11,99.28,22.125
1417,11,99.86,22.140625
1418,11,98.13,22.15625
1419,11,94.29,22.171875
1420,11,88.88,22.1875
1421,11,82.61,22.203125
1422,11,76.14,22.21875
1423,11,69.95,22.234375
1424,11,64.37,22.25
1425,11,59.6,22.265625
1426,11,55.64,22.28125
1427,11,52.37,22.296875
1428,11,49.42,22.3125
1429,11,46.29,22.328125
1430,11,42.47,22.34375
1431,11,37.53,22.359375
1432,11,31.23,22.375
1433,11,23.54,22.390625
1434,11,14.57,22.40625
1435,11,4.45,22.421875
1436,11,-6.6,22.4375
1437,11,-18.27,22.453125
1438,11,-29.96,22.46875
1439,11,-40.74,22.484375
1440,11,-49.49,22.5
1441,11,-55.05,22.515625
1442,11,-56.59,22.53125
1443,11,-53.91,22.546875
1444,11,-47.6,22.5625
1445,11,-38.97,22.578125
1446,11,-29.67,22.59375
1447,11,-21.29,22.609375
1448,11,-14.9,22.625
1449,11,-10.96,22.640625
1450,11,-9.45,22.65625
1451,11,-10.08,22.671875
1452,11,-12.52,22.6875
1453,11,-16.45,22.703125
1454,11,-21.53,22.71875
1455,11,-27.35,22.734375
1456,11,-33.37,22.75
1457,11,-38.95,22.765625
1458,11,-43.54,22.78125
1459,11,-46.71,22.796875
1460,11,-48.37,22.8125
1461,11,-48.69,22.828125
1462,11,-48.14,22.84375
1463,11,-47.15,22.859375
1464,11,-46.0,22.875
1465,11,-44.62,22.890625
1466,11,-42.53,22.90625
1467,11,-39.21,22.921875
1468,11,-34.44,22.9375
1469,11,-28.68,22.953125
1470,11,-23.0,22.96875
1471,11,-18.51,22.984375
1472,11,-15.67,23.0
1473,11,-13.92,23.015625
1474,11,-11.76,23.03125
1475,11,-7.6,23.046875
1476,11,-0.69,23.0625
1477,11,8.45,23.078125
1478,11,18.26,23.09375
1479,11,26.98,23.109375
1480,11,33.51,23.125
1481,11,37.73,23.140625
1482,11,40.22,23.15625
1483,11,41.48,23.171875
1484,11,41.49,23.1875
1485,11,39.59,23.203125
1486,11,34.97,23.21875
1487,11,27.27,23.234375
1488,11,16.96,23.25
1489,11,5.21,23.265625
1490,11,-6.53,23.28125
1491,11,-17.05,23.296875
1492,11,-25.64,23.3125
1493,11,-32.14,23.328125
1494,11,-36.78,23.34375
1495,11,-39.99,23.359375
1496,11,-42.22,23.375
1497,11,-43.95,23.390625
1498,11,-45.66,23.40625
1499,11,-47.69,23.421875
1500,11,-50.16,23.4375
1501,11,-52.92,23.453125
1502,11,-55.48,23.46875
1503,11,-57.1,23.484375
1504,11,-56.97,23.5
1505,11,-54.36,23.515625
1506,11,-48.89,23.53125
1507,11,-40.63,23.546875
1508,11,-30.17,23.5625
1509,11,-18.55,23.578125
1510,11,-6.97,23.59375
1511,11,3.48,23.609375
1512,11,12.09,23.625
1513,11,18.75,23.640625
1514,11,23.87,23.65625
1515,11,28.19,23.671875
1516,11,32.53,23.6875
1517,11,37.57,23.703125
1518,11,43.75,23.71875
1519,11,51.26,23.734375
1520,11,60.09,23.75
1521,11,69.92,23.765625
1522,11,80.15,23.78125
1523,11,89.79,23.796875
1524,11,97.66,23.8125
1525,11,102.6,23.828125
1526,11,103.79,23.84375
1527,11,100.97,23.859375
1528,11,94.49,23.875
1529,11,85.02,23.890625
1530,11,73.28,23.90625
1531,11,59.75,23.921875
1532,11,44.72,23.9375
1533,11,28.5,23.953125
1534,11,11.72,23.96875
1535,11,-4.53,23.984375
1536,11,-18.95,24.0
1537,11,-30.49,24.015625
1538,11,-38.8,24.03125
1539,11,-44.42,24.046875
1540,11,-48.48,24.0625
1541,11,-52.21,24.078125
1542,11,-56.33,24.09375
1543,11,-60.8,24.109375
1544,11,-64.97,24.125
1545,11,-68.06,24.140625
1546,11,-69.56,24.15625
1547,11,-69.56,24.171875
1548,11,-68.55,24.1875
1549,11,-67.18,24.203125
1550,11,-65.83,24.21875
1551,11,-64.52,24.234375
1552,11,-62.98,24.25
1553,11,-60.95,24.265625
1554,11,-58.37,24.28125
1555,11,-55.46,24.296875
1556,11,-52.63,24.3125
1557,11,-50.26,24.328125
1558,11,-48.56,24.34375
1559,11,-47.54,24.359375
1560,11,-47.09,24.375
1561,11,-47.09,24.390625
1562,11,-47.47,24.40625
1563,11,-48.08,24.421875
1564,11,-48.58,24.4375
1565,11,-48.42,24.453125
1566,11,-46.91,24.46875
1567,11,-43.47,24.484375
1568,11,-37.86,24.5
1569,11,-30.33,24.515625
1570,11,-21.54,24.53125
1571,11,-12.41,24.546875
1572,11,-3.85,24.5625
1573,11,3.43,24.578125
1574,11,9.09,24.59375
1575,11,13.11,24.609375
1576,11,15.74,24.625
1577,11,17.36,24.640625
1578,11,18.34,24.65625
1579,11,18.98,24.671875
1580,11,19.49,24.6875
1581,11,19.91,24.703125
1582,11,20.22,24.71875
1583,11,20.39,24.734375
1584,11,20.38,24.75
1585,11,20.18,24.765625
1586,11,19.79,24.78125
1587,11,19.26,24.796875
1588,11,18.64,24.8125
1589,11,18.02,24.828125
1590,11,17.5,24.84375
1591,11,17.17,24.859375
1592,11,17.07,24.875
1593,11,17.15,24.890625
1594,11,17.28,24.90625
1595,11,17.31,24.921875
1596,11,17.12,24.9375
1597,11,16.63,24.953125
1598,11,15.88,24.96875
1599,11,14.92,24.984375
1600,11,13.81,25.0
1601,11,12.63,25.015625
1602,11,11.37,25.03125
1603,11,10.04,25.046875
1604,11,8.55,25.0625
1605,11,6.84,25.078125
1606,11,4.83,25.09375
1607,11,2.54,25.109375
1608,11,0.08,25.125
1609,11,-2.33,25.140625
1610,11,-4.53,25.15625
1611,11,-6.39,25.171875
1612,11,-7.97,25.1875
1613,11,-9.43,25.203125
1614,11,-10.93,25.21875
1615,11,-12.54,25.234375
1616,11,-14.23,25.25
1617,11,-15.89,25.265625
1618,11,-17.58,25.28125
1619,11,-19.52,25.296875
1620,11,-22.04,25.3125
1621,11,-25.28,25.328125
1622,11,-28.93,25.34375
1623,11,-32.18,25.359375
1624,11,-33.86,25.375
1625,11,-32.9,25.390625
1626,11,-28.86,25.40625
1627,11,-22.07,25.421875
1628,11,-13.64,25.4375
1629,11,-4.94,25.453125
1630,11,2.82,25.46875
1631,11,9.0,25.484375
1632,11,13.56,25.5
1633,11,16.78,25.515625
1634,11,19.04,25.53125
1635,11,20.56,25.546875
1636,11,21.43,25.5625
1637,11,21.65,25.578125
1638,11,21.35,25.59375
1639,11,20.74,25.609375
1640,11,20.06,25.625
1641,11,19.47,25.640625
1642,11,18.97,25.65625
1643,11,18.45,25.671875
1644,11,17.79,25.6875
1645,11,16.99,25.703125
1646,11,16.15,25.71875
1647,11,15.46,25.734375
1648,11,15.06,25.75
1649,11,14.99,25.765625
1650,11,15.17,25.78125
1651,11,15.42,25.796875
1652,11,15.56,25.8125
1653,11,15.44,25.828125
1654,11,14.98,25.84375
1655,11,14.16,25.859375
1656,11,13.01,25.875
1657,11,11.65,25.890625
1658,11,10.21,25.90625
1659,11,8.85,25.921875
1660,11,7.66,25.9375
1661,11,6.62,25.953125
1662,11,5.54,25.96875
1663,11,4.26,25.984375
1664,11,2.71,26.0
1665,11,0.98,26.015625
1666,11,-0.75,26.03125
1667,11,-2.29,26.046875
1668,11,-3.57,26.0625
1669,11,-4.75,26.078125
1670,11,-6.04,26.09375
1671,11,-7.6,26.109375
1672,11,-9.45,26.125
1673,11,-11.46,26.140625
1674,11,-13.45,26.15625
1675,11,-15.3,26.171875
1676,11,-17.05,26.1875
1677,11,-18.86,26.203125
1678,11,-20.93,26.21875
1679,11,-23.46,26.234375
1680,11,-26.57,26.25
1681,11,-30.32,26.265625
1682,11,-34.59,26.28125
1683,11,-39.0,26.296875
1684,11,-42.9,26.3125
1685,11,-45.37,26.328125
1686,11,-45.51,26.34375
1687,11,-42.72,26.359375
1688,11,-36.93,26.375
1689,11,-28.73,26.390625
1690,11,-19.19,26.40625
1691,11,-9.55,26.421875
1692,11,-0.85,26.4375
1693,11,6.3,26.453125
1694,11,11.8,26.46875
1695,11,15.9,26.484375
1696,11,18.95,26.5
1697,11,21.23,26.515625
1698,11,22.83,26.53125
1699,11,23.73,26.546875
1700,11,23.9,26.5625
1701,11,23.46,26.578125
1702,11,22.66,26.59375
1703,11,21.79,26.609375
1704,11,21.06,26.625
1705,11,20.53,26.640625
1706,11,20.06,26.65625
1707,11,19.57,26.671875
1708,11,19.0,26.6875
1709,11,18.45,26.703125
1710,11,18.08,26.71875
1711,11,17.96,26.734375
1712,11,18.07,26.75
1713,11,18.22,26.765625
1714,11,18.23,26.78125
1715,11,17.97,26.796875
1716,11,17.45,26.8125
1717,11,16.7,26.828125
1718,11,15.8,26.84375
1719,11,14.78,26.859375
1720,11,13.63,26.875
1721,11,12.36,26.890625
1722,11,11.0,26.90625
1723,11,9.65,26.921875
1724,11,8.37,26.9375
1725,11,7.2,26.953125
1726,11,6.1,26.96875
1727,11,4.98,26.984375
1728,11,3.7,27.0
1729,11,2.17,27.015625
1730,11,0.37,27.03125
1731,11,-1.69,27.046875
1732,11,-3.92,27.0625
1733,11,-6.23,27.078125
1734,11,-8.51,27.09375
1735,11,-10.68,27.109375
1736,11,-12.68,27.125
1737,11,-14.49,27.140625
1738,11,-16.14,27.15625
1739,11,-17.77,27.171875
1740,11,-19.62,27.1875
1741,11,-21.93,27.203125
1742,11,-24.84,27.21875
1743,11,-28.29,27.234375
1744,11,-31.89,27.25
1745,11,-34.94,27.265625
1746,11,-36.58,27.28125
1747,11,-36.05,27.296875
1748,11,-32.97,27.3125
1749,11,-27.46,27.328125
1750,11,-20.16,27.34375
1751,11,-12.01,27.359375
1752,11,-3.98,27.375
1753,11,3.14,27.390625
1754,11,8.96,27.40625
1755,11,13.4,27.421875
1756,11,16.63,27.4375
1757,11,18.88,27.453125
1758,11,20.35,27.46875
1759,11,21.17,27.484375
1760,11,21.46,27.5
1761,11,21.31,27.515625
1762,11,20.9,27.53125
1763,11,20.37,27.546875
1764,11,19.84,27.5625
1765,11,19.36,27.578125
1766,11,18.89,27.59375
1767,11,18.41,27.609375
1768,11,17.92,27.625
1769,11,17.52,27.640625
1770,11,17.35,27.65625
1771,11,17.5,27.671875
1772,11,17.98,27.6875
1773,11,18.65,27.703125
1774,11,19.36,27.71875
1775,11,19.97,27.734375
1776,11,20.4,27.75
1777,11,20.59,27.765625
1778,11,20.48,27.78125
1779,11,20.01,27.796875
1780,11,19.11,27.8125
1781,11,17.78,27.828125
1782,11,16.16,27.84375
1783,11,14.45,27.859375
1784,11,12.83,27.875
1785,11,11.37,27.890625
1786,11,10.01,27.90625
1787,11,8.58,27.921875
1788,11,6.92,27.9375
1789,11,4.97,27.953125
1790,11,2.75,27.96875
1791,11,0.4,27.984375
1792,11,-1.99,28.0
1793,11,-4.33,28.015625
1794,11,-6.61,28.03125
1795,11,-8.79,28.046875
1796,11,-10.82,28.0625
1797,11,-12.65,28.078125
1798,11,-14.33,28.09375
1799,11,-16.03,28.109375
1800,11,-18.01,28.125
1801,11,-20.5,28.140625
1802,11,-23.42,28.15625
1803,11,-26.28,28.171875
1804,11,-28.25,28.1875
1805,11,-28.43,28.203125
1806,11,-26.28,28.21875
1807,11,-21.81,28.234375
1808,11,-15.66,28.25
1809,11,-8.77,28.265625
1810,11,-2.01,28.28125
1811,11,4.04,28.296875
1812,11,9.22,28.3125
1813,11,13.54,28.328125
1814,11,17.01,28.34375
1815,11,19.52,28.359375
1816,11,20.96,28.375
1817,11,21.27,28.390625
1818,11,20.67,28.40625
1819,11,19.58,28.421875
1820,11,18.43,28.4375
1821,11,17.52,28.453125
1822,11,16.93,28.46875
1823,11,16.54,28.484375
1824,11,16.18,28.5
1825,11,15.75,28.515625
1826,11,15.23,28.53125
1827,11,14.68,28.546875
1828,11,14.08,28.5625
1829,11,13.39,28.578125
1830,11,12.46,28.59375
1831,11,11.22,28.609375
1832,11,9.67,28.625
1833,11,8.0,28.640625
1834,11,6.5,28.65625
1835,11,5.4,28.671875
1836,11,4.78,28.6875
1837,11,4.48,28.703125
1838,11,4.17,28.71875
1839,11,3.55,28.734375
1840,11,2.44,28.75
1841,11,0.91,28.765625
1842,11,-0.82,28.78125
1843,11,-2.5,28.796875
1844,11,-3.96,28.8125
1845,11,-5.2,28.828125
1846,11,-6.33,28.84375
1847,11,-7.49,28.859375
1848,11,-8.78,28.875
1849,11,-10.22,28.890625
1850,11,-11.78,28.90625
1851,11,-13.38,28.921875
1852,11,-14.96,28.9375
1853,11,-16.48,28.953125
1854,11,-17.96,28.96875
1855,11,-19.46,28.984375
1856,11,-21.03,29.0
1857,11,-22.81,29.015625
1858,11,-24.93,29.03125
1859,11,-27.41,29.046875
1860,11,-30.16,29.0625
1861,11,-32.78,29.078125
1862,11,-34.7,29.09375
1863,11,-35.19,29.109375
1864,11,-33.65,29.125
1865,11,-29.8,29.140625
1866,11,-23.85,29.15625
1867,11,-16.47,29.171875
1868,11,-8.55,29.1875
1869,11,-0.99,29.203125
1870,11,5.59,29.21875
1871,11,10.87,29.234375
1872,11,14.8,29.25
1873,11,17.49,29.265625
1874,11,19.1,29.28125
1875,11,19.84,29.296875
1876,11,19.96,29.3125
1877,11,19.78,29.328125
1878,11,19.61,29.34375
1879,11,19.62,29.359375
1880,11,19.81,29.375
1881,11,20.03,29.390625
1882,11,20.08,29.40625
1883,11,19.81,29.421875
1884,11,19.27,29.4375
1885,11,18.63,29.453125
1886,11,18.07,29.46875
1887,11,17.7,29.484375
1888,11,17.48,29.5
1889,11,17.29,29.515625
1890,11,16.98,29.53125
1891,11,16.43,29.546875
1892,11,15.58,29.5625
1893,11,14.44,29.578125
1894,11,12.97,29.59375
1895,11,11.17,29.609375
1896,11,9.07,29.625
1897,11,6.77,29.640625
1898,11,4.48,29.65625
1899,11,2.39,29.671875
1900,11,0.64,29.6875
1901,11,-0.78,29.703125
1902,11,-2.02,29.71875
1903,11,-3.32,29.734375
1904,11,-4.88,29.75
1905,11,-6.78,29.765625
1906,11,-8.93,29.78125
1907,11,-11.09,29.796875
1908,11,-13.05,29.8125
1909,11,-14.64,29.828125
1910,11,-15.88,29.84375
1911,11,-16.9,29.859375
1912,11,-17.83,29.875
1913,11,-18.8,29.890625
1914,11,-19.88,29.90625
1915,11,-21.14,29.921875
1916,11,-22.71,29.9375
1917,11,-24.72,29.953125
1918,11,-27.11,29.96875
1919,11,-29.54,29.984375
1920,11,-31.34,30.0
1921,11,-31.7,30.015625
1922,11,-29.94,30.03125
1923,11,-25.85,30.046875
1924,11,-19.81,30.0625
1925,11,-12.64,30.078125
1926,11,-5.29,30.09375
1927,11,1.49,30.109375
1928,11,7.27,30.125
1929,11,11.94,30.140625
1930,11,15.58,30.15625
1931,11,18.3,30.171875
1932,11,20.22,30.1875
1933,11,21.44,30.203125
1934,11,22.1,30.21875
1935,11,22.3,30.234375
1936,11,22.06,30.25
1937,11,21.28,30.265625
1938,11,19.81,30.28125
1939,11,17.62,30.296875
1940,11,14.85,30.3125
1941,11,11.92,30.328125
1942,11,9.31,30.34375
1943,11,7.41,30.359375
1944,11,6.4,30.375
1945,11,6.18,30.390625
1946,11,6.49,30.40625
1947,11,7.04,30.421875
1948,11,7.63,30.4375
1949,11,8.08,30.453125
1950,11,8.24,30.46875
1951,11,7.93,30.484375
1952,11,6.97,30.5
1953,11,5.33,30.515625
1954,11,3.17,30.53125
1955,11,0.82,30.546875
1956,11,-1.31,30.5625
1957,11,-2.92,30.578125
1958,11,-3.95,30.59375
1959,11,-4.59,30.609375
1960,11,-5.15,30.625
1961,11,-5.95,30.640625
1962,11,-7.13,30.65625
1963,11,-8.66,30.671875
1964,11,-10.34,30.6875
1965,11,-11.98,30.703125
1966,11,-13.41,30.71875
1967,11,-14.64,30.734375
1968,11,-15.73,30.75
1969,11,-16.79,30.765625
1970,11,-17.93,30.78125
1971,11,-19.23,30.796875
1972,11,-20.77,30.8125
1973,11,-22.65,30.828125
1974,11,-24.91,30.84375
1975,11,-27.42,30.859375
1976,11,-29.75,30.875
1977,11,-31.2,30.890625
1978,11,-30.93,30.90625
1979,11,-28.35,30.921875
1980,11,-23.34,30.9375
1981,11,-16.4,30.953125
1982,11,-8.54,30.96875
1983,11,-0.93,30.984375
1984,11,5.49,31.0
1985,11,10.29,31.015625
1986,11,13.56,31.03125
1987,11,15.69,31.046875
1988,11,17.13,31.0625
1989,11,18.1,31.078125
1990,11,18.61,31.09375
1991,11,18.52,31.109375
1992,11,17.75,31.125
1993,11,16.4,31.140625
1994,11,14.76,31.15625
1995,11,13.13,31.171875
1996,11,11.73,31.1875
1997,11,10.59,31.203125
1998,11,9.59,31.21875
1999,11,8.58,31.234375
2000,11,7.52,31.25
2001,11,6.52,31.265625
2002,11,5.78,31.28125
2003,11,5.42,31.296875
2004,11,5.44,31.3125
2005,11,5.61,31.328125
2006,11,5.67,31.34375
2007,11,5.42,31.359375
2008,11,4.76,31.375
2009,11,3.79,31.390625
2010,11,2.65,31.40625
2011,11,1.49,31.421875
2012,11,0.45,31.4375
2013,11,-0.35,31.453125
2014,11,-0.83,31.46875
2015,11,-0.99,31.484375
2016,11,-1.01,31.5
2017,11,-1.25,31.515625
2018,11,-2.1,31.53125
2019,11,-3.83,31.546875
2020,11,-6.41,31.5625
2021,11,-9.46,31.578125
2022,11,-12.47,31.59375
2023,11,-14.99,31.609375
2024,11,-16.85,31.625
2025,11,-18.14,31.640625
2026,11,-19.1,31.65625
2027,11,-19.96,31.671875
2028,11,-20.83,31.6875
2029,11,-21.88,31.703125
2030,11,-23.28,31.71875
2031,11,-25.14,31.734375
2032,11,-27.44,31.75
2033,11,-29.74,31.765625
2034,11,-31.3,31.78125
2035,11,-31.18,31.796875
2036,11,-28.71,31.8125
2037,11,-23.76,31.828125
2038,11,-16.88,31.84375
2039,11,-9.08,31.859375
2040,11,-1.45,31.875
2041,11,5.22,31.890625
2042,11,10.61,31.90625
2043,11,14.79,31.921875
2044,11,18.01,31.9375
2045,11,20.48,31.953125
2046,11,22.29,31.96875
2047,11,23.42,31.984375
2048,11,23.88,32.0
2049,11,23.78,32.015625
2050,11,23.33,32.03125
2051,11,22.78,32.046875
2052,11,22.27,32.0625
2053,11,21.81,32.078125
2054,11,21.3,32.09375
2055,11,20.63,32.109375
2056,11,19.77,32.125
2057,11,18.81,32.140625
2058,11,17.94,32.15625
2059,11,17.37,32.171875
2060,11,17.22,32.1875
2061,11,17.43,32.203125
2062,11,17.82,32.21875
2063,11,18.1,32.234375
2064,11,18.01,32.25
2065,11,17.32,32.265625
2066,11,15.97,32.28125
2067,11,14.08,32.296875
2068,11,11.92,32.3125
2069,11,9.74,32.328125
2070,11,7.7,32.34375
2071,11,5.82,32.359375
2072,11,4.02,32.375
2073,11,2.14,32.390625
2074,11,0.03,32.40625
2075,11,-2.36,32.421875
2076,11,-4.96,32.4375
2077,11,-7.59,32.453125
2078,11,-10.06,32.46875
2079,11,-12.26,32.484375
2080,11,-14.18,32.5
2081,11,-15.93,32.515625
2082,11,-17.66,32.53125
2083,11,-19.69,32.546875
2084,11,-22.23,32.5625
2085,11,-25.38,32.578125
2086,11,-28.95,32.59375
2087,11,-32.52,32.609375
2088,11,-35.4,32.625
2089,11,-36.79,32.640625
2090,11,-35.96,32.65625
2091,11,-32.54,32.671875
2092,11,-27.0,32.6875
2093,11,-20.36,32.703125
2094,11,-13.84,32.71875
2095,11,-8.6,32.734375
2096,11,-5.52,32.75
2097,11,-4.93,32.765625
2098,11,-6.75,32.78125
2099,11,-10.42,32.796875
2100,11,-15.23,32.8125
2101,11,-21.09,32.828125
2102,11,-27.91,32.84375
2103,11,-35.39,32.859375
2104,11,-42.93,32.875
2105,11,-50.04,32.890625
2106,11,-56.38,32.90625
2107,11,-62.2,32.921875
2108,11,-67.91,32.9375
2109,11,-73.87,32.953125
2110,11,-80.95,32.96875
2111,11,-89.02,32.984375
2112,11,-96.59,33.0
2113,11,-101.31,33.015625
2114,11,-101.16,33.03125
2115,11,-95.08,33.046875
2116,11,-83.7,33.0625
2117,11,-68.49,33.078125
2118,11,-51.18,33.09375
2119,11,-34.45,33.109375
2120,11,-20.03,33.125
2121,11,-8.13,33.140625
2122,11,2.14,33.15625
2123,11,11.8,33.171875
2124,11,21.56,33.1875
2125,11,31.19,33.203125
2126,11,40.25,33.21875
2127,11,55.42,33.234375
2128,11,78.66,33.25
2129,11,106.49,33.265625
2130,11,132.45,33.28125
2131,11,152.02,33.296875
2132,11,162.92,33.3125
2133,11,169.14,33.328125
2134,11,174.18,33.34375
2135,11,180.37,33.359375
2136,11,188.56,33.375
2137,11,197.15,33.390625
2138,11,203.04,33.40625
2139,11,203.05,33.421875
2140,11,194.9,33.4375
2141,11,177.5,33.453125
2142,11,151.43,33.46875
2143,11,118.26,33.484375
2144,11,80.86,33.5
2145,11,42.89,33.515625
2146,11,7.22,33.53125
2147,11,-23.39,33.546875
2148,11,-46.37,33.5625
2149,11,-59.97,33.578125
2150,11,-64.13,33.59375
2151,11,-60.48,33.609375
2152,11,-52.21,33.625
2153,11,-42.55,33.640625
2154,11,-33.89,33.65625
2155,11,-28.11,33.671875
2156,11,-25.99,33.6875
2157,11,-27.24,33.703125
2158,11,-30.86,33.71875
2159,11,-35.6,33.734375
2160,11,-40.11,33.75
2161,11,-43.52,33.765625
2162,11,-45.32,33.78125
2163,11,-45.43,33.796875
2164,11,-44.43,33.8125
2165,11,-42.84,33.828125
2166,11,-40.6,33.84375
2167,11,-37.04,33.859375
2168,11,-31.36,33.875
2169,11,-23.2,33.890625
2170,11,-13.25,33.90625
2171,11,-3.04,33.921875
2172,11,5.49,33.9375
2173,11,10.63,33.953125
2174,11,11.58,33.96875
2175,11,8.76,33.984375
2176,11,3.53,34.0
2177,11,-2.54,34.015625
2178,11,-8.39,34.03125
2179,11,-13.8,34.046875
2180,11,-19.29,34.0625
2181,11,-25.52,34.078125
2182,11,-32.8,34.09375
2183,11,-40.77,34.109375
2184,11,-48.56,34.125
2185,11,-55.23,34.140625
2186,11,-60.08,34.15625
2187,11,-62.72,34.171875
2188,11,-62.81,34.1875
2189,11,-59.73,34.203125
2190,11,-52.81,34.21875
2191,11,-41.93,34.234375
2192,11,-28.16,34.25
2193,11,-14.07,34.265625
2194,11,-3.14,34.28125
2195,11,1.53,34.296875
2196,11,-1.44,34.3125
2197,11,-11.15,34.328125
2198,11,-24.76,34.34375
2199,11,-38.59,34.359375
2200,11,-49.39,34.375
2201,11,-55.09,34.390625
2202,11,-55.03,34.40625
2203,11,-49.72,34.421875
2204,11,-40.35,34.4375
2205,11,-28.47,34.453125
2206,11,-15.75,34.46875
2207,11,-3.77,34.484375
2208,11,6.16,34.5
2209,11,13.3,34.515625
2210,11,17.6,34.53125
2211,11,19.64,34.546875
2212,11,20.33,34.5625
2213,11,20.5,34.578125
2214,11,20.71,34.59375
2215,11,21.07,34.609375
2216,11,21.45,34.625
2217,11,21.62,34.640625
2218,11,21.43,34.65625
2219,11,20.9,34.671875
2220,11,20.15,34.6875
2221,11,19.29,34.703125
2222,11,18.39,34.71875
2223,11,17.49,34.734375
2224,11,16.68,34.75
2225,11,16.19,34.765625
2226,11,16.19,34.78125
2227,11,16.72,34.796875
2228,11,17.4,34.8125
2229,11,17.6,34.828125
2230,11,16.6,34.84375
2231,11,14.07,34.859375
2232,11,10.23,34.875
2233,11,5.82,34.890625
2234,11,1.91,34.90625
2235,11,-0.65,34.921875
2236,11,-1.5,34.9375
2237,11,-0.95,34.953125
2238,11,0.23,34.96875
2239,11,1.1,34.984375
2240,11,0.91,35.0
2241,11,-0.74,35.015625
2242,11,-3.82,35.03125
2243,11,-7.98,35.046875
2244,11,-12.62,35.0625
2245,11,-17.05,35.078125
2246,11,-20.53,35.09375
2247,11,-22.49,35.109375
2248,11,-22.74,35.125
2249,11,-21.65,35.140625
2250,11,-20.17,35.15625
2251,11,-19.64,35.171875
2252,11,-21.24,35.1875
2253,11,-25.6,35.203125
2254,11,-32.42,35.21875
2255,11,-40.52,35.234375
2256,11,-48.12,35.25
2257,11,-53.34,35.265625
2258,11,-54.8,35.28125
2259,11,-52.06,35.296875
2260,11,-45.73,35.3125
2261,11,-37.36,35.328125
2262,11,-28.98,35.34375
2263,11,-22.32,35.359375
2264,11,-18.16,35.375
2265,11,-15.94,35.390625
2266,11,-14.1,35.40625
2267,11,-10.86,35.421875
2268,11,-5.21,35.4375
2269,11,2.59,35.453125
2270,11,11.06,35.46875
2271,11,18.36,35.484375
2272,11,23.16,35.5
2273,11,25.25,35.515625
2274,11,25.41,35.53125
2275,11,24.81,35.546875
2276,11,24.35,35.5625
2277,11,24.23,35.578125
2278,11,24.18,35.59375
2279,11,23.84,35.609375
2280,11,23.12,35.625
2281,11,22.35,35.640625
2282,11,21.93,35.65625
2283,11,22.14,35.671875
2284,11,22.85,35.6875
2285,11,23.64,35.703125
2286,11,23.96,35.71875
2287,11,23.23,35.734375
2288,11,20.97,35.75
2289,11,16.9,35.765625
2290,11,11.17,35.78125
2291,11,4.34,35.796875
2292,11,-2.59,35.8125
2293,11,-8.61,35.828125
2294,11,-13.03,35.84375
2295,11,-15.85,35.859375
2296,11,-17.65,35.875
2297,11,-19.21,35.890625
2298,11,-21.07,35.90625
2299,11,-23.22,35.921875
2300,11,-25.21,35.9375
2301,11,-26.5,35.953125
2302,11,-26.94,35.96875
2303,11,-26.86,35.984375
2304,11,-26.83,36.0
2305,11,-27.16,36.015625
2306,11,-27.64,36.03125
2307,11,-27.59,36.046875
2308,11,-26.19,36.0625
2309,11,-22.97,36.078125
2310,11,-18.06,36.09375
2311,11,-12.05,36.109375
2312,11,-5.67,36.125
2313,11,0.63,36.140625
2314,11,6.95,36.15625
2315,11,13.96,36.171875
2316,11,22.58,36.1875
2317,11,33.65,36.203125
2318,11,47.6,36.21875
2319,11,64.4,36.234375
2320,11,83.58,36.25
2321,11,104.43,36.265625
2322,11,126.09,36.28125
2323,11,147.54,36.296875
2324,11,167.59,36.3125
2325,11,184.89,36.328125
2326,11,198.05,36.34375
2327,11,205.9,36.359375
2328,11,207.61,36.375
2329,11,202.83,36.390625
2330,11,191.65,36.40625
2331,11,174.61,36.421875
2332,11,152.83,36.4375
2333,11,128.14,36.453125
2334,11,103.1,36.46875
2335,11,80.62,36.484375
2336,11,63.29,36.5
2337,11,52.44,36.515625
2338,11,47.63,36.53125
2339,11,46.69,36.546875
2340,11,46.36,36.5625
2341,11,43.33,36.578125
2342,11,35.1,36.59375
2343,11,20.68,36.609375
2344,11,0.73,36.625
2345,11,-22.68,36.640625
2346,11,-46.72,36.65625
2347,11,-68.61,36.671875
2348,11,-86.35,36.6875
2349,11,-99.08,36.703125
2350,11,-107.04,36.71875
2351,11,-111.15,36.734375
2352,11,-112.35,36.75
2353,11,-111.31,36.765625
2354,11,-108.42,36.78125
2355,11,-103.99,36.796875
2356,11,-98.53,36.8125
2357,11,-92.84,36.828125
2358,11,-87.73,36.84375
2359,11,-83.62,36.859375
2360,11,-80.49,36.875
2361,11,-77.79,36.890625
2362,11,-74.85,36.90625
2363,11,-71.26,36.921875
2364,11,-67.03,36.9375
2365,11,-62.57,36.953125
2366,11,-58.44,36.96875
2367,11,-55.12,36.984375
2368,11,-52.73,37.0
2369,11,-51.05,37.015625
2370,11,-49.68,37.03125
2371,11,-48.3,37.046875
2372,11,-46.89,37.0625
2373,11,-45.68,37.078125
2374,11,-44.95,37.09375
2375,11,-44.65,37.109375
2376,11,-44.35,37.125
2377,11,-43.26,37.140625
2378,11,-40.62,37.15625
2379,11,-36.05,37.171875
2380,11,-29.78,37.1875
2381,11,-22.58,37.203125
2382,11,-15.43,37.21875
2383,11,-9.26,37.234375
2384,11,-4.57,37.25
2385,11,-1.36,37.265625
2386,11,0.75,37.28125
2387,11,2.33,37.296875
2388,11,3.92,37.3125
2389,11,5.76,37.328125
2390,11,7.9,37.34375
2391,11,10.25,37.359375
2392,11,12.72,37.375
2393,11,15.34,37.390625
2394,11,18.2,37.40625
2395,11,21.36,37.421875
2396,11,24.73,37.4375
2397,11,28.2,37.453125
2398,11,31.63,37.46875
2399,11,35.05,37.484375
2400,11,38.57,37.5
2401,11,42.33,37.515625
2402,11,46.28,37.53125
2403,11,50.14,37.546875
2404,11,53.49,37.5625
2405,11,55.91,37.578125
2406,11,57.1,37.59375
2407,11,56.94,37.609375
2408,11,55.42,37.625
2409,11,52.52,37.640625
2410,11,48.32,37.65625
2411,11,43.0,37.671875
2412,11,36.99,37.6875
2413,11,30.92,37.703125
2414,11,25.47,37.71875
2415,11,21.08,37.734375
2416,11,17.77,37.75
2417,11,15.13,37.765625
2418,11,12.55,37.78125
2419,11,9.56,37.796875
2420,11,6.07,37.8125
2421,11,2.31,37.828125
2422,11,-1.29,37.84375
2423,11,-4.46,37.859375
2424,11,-7.23,37.875
2425,11,-9.9,37.890625
2426,11,-12.76,37.90625
2427,11,-15.8,37.921875
2428,11,-18.67,37.9375
2429,11,-20.77,37.953125
2430,11,-21.52,37.96875
2431,11,-20.72,37.984375
2432,11,-18.64,38.0
2433,11,-15.83,38.015625
2434,11,-12.86,38.03125
2435,11,-10.09,38.046875
2436,11,-7.65,38.0625
2437,11,-5.46,38.078125
2438,11,-3.54,38.09375
2439,11,-2.06,38.109375
2440,11,-1.28,38.125
2441,11,-1.42,38.140625
2442,11,-2.46,38.15625
2443,11,-4.14,38.171875
2444,11,-6.1,38.1875
2445,11,-8.02,38.203125
2446,11,-9.79,38.21875
2447,11,-11.42,38.234375
2448,11,-12.96,38.25
2449,11,-14.29,38.265625
2450,11,-15.22,38.28125
2451,11,-15.55,38.296875
2452,11,-15.21,38.3125
2453,11,-14.38,38.328125
2454,11,-13.41,38.34375
2455,11,-12.68,38.359375
2456,11,-12.42,38.375
2457,11,-12.63,38.390625
2458,11,-13.12,38.40625
2459,11,-13.67,38.421875
2460,11,-14.08,38.4375
2461,11,-14.32,38.453125
2462,11,-14.46,38.46875
2463,11,-14.64,38.484375
2464,11,-14.97,38.5
2465,11,-15.55,38.515625
2466,11,-16.39,38.53125
2467,11,-17.39,38.546875
2468,11,-18.43,38.5625
2469,11,-19.34,38.578125
2470,11,-19.98,38.59375
2471,11,-20.35,38.609375
2472,11,-20.63,38.625
2473,11,-21.07,38.640625
2474,11,-21.91,38.65625
2475,11,-23.23,38.671875
2476,11,-24.81,38.6875
2477,11,-26.16,38.703125
2478,11,-26.73,38.71875
2479,11,-26.12,38.734375
2480,11,-24.25,38.75
2481,11,-21.35,38.765625
2482,11,-17.91,38.78125
2483,11,-14.38,38.796875
2484,11,-11.09,38.8125
2485,11,-8.17,38.828125
2486,11,-5.61,38.84375
2487,11,-3.29,38.859375
2488,11,-1.14,38.875
2489,11,0.89,38.890625
2490,11,2.72,38.90625
2491,11,4.24,38.921875
2492,11,5.29,38.9375
2493,11,5.78,38.953125
2494,11,5.75,38.96875
2495,11,5.42,38.984375
2496,11,5.14,39.0
2497,11,5.15,39.015625
2498,11,5.51,39.03125
2499,11,6.05,39.046875
2500,11,6.42,39.0625
2501,11,6.36,39.078125
2502,11,5.78,39.09375
2503,11,4.8,39.109375
2504,11,3.68,39.125
2505,11,2.64,39.140625
2506,11,1.76,39.15625
2507,11,1.03,39.171875
2508,11,0.38,39.1875
2509,11,-0.26,39.203125
2510,11,-0.94,39.21875
2511,11,-1.7,39.234375
2512,11,-2.62,39.25
2513,11,-3.79,39.265625
2514,11,-5.21,39.28125
2515,11,-6.76,39.296875
2516,11,-8.25,39.3125
2517,11,-9.43,39.328125
2518,11,-10.22,39.34375
2519,11,-10.69,39.359375
2520,11,-11.11,39.375
2521,11,-11.8,39.390625
2522,11,-13.01,39.40625
2523,11,-14.83,39.421875
2524,11,-17.11,39.4375
2525,11,-19.55,39.453125
2526,11,-21.73,39.46875
2527,11,-23.23,39.484375
2528,11,-23.66,39.5
2529,11,-22.78,39.515625
2530,11,-20.51,39.53125
2531,11,-16.98,39.546875
2532,11,-12.56,39.5625
2533,11,-7.74,39.578125
2534,11,-3.0,39.59375
2535,11,1.24,39.609375
2536,11,4.78,39.625
2537,11,7.62,39.640625
2538,11,9.87,39.65625
2539,11,11.67,39.671875
2540,11,13.13,39.6875
2541,11,14.25,39.703125
2542,11,15.0,39.71875
2543,11,15.29,39.734375
2544,11,15.07,39.75
2545,11,14.34,39.765625
2546,11,13.13,39.78125
2547,11,11.51,39.796875
2548,11,9.63,39.8125
2549,11,7.66,39.828125
2550,11,5.8,39.84375
2551,11,4.29,39.859375
2552,11,3.29,39.875
2553,11,2.85,39.890625
2554,11,2.89,39.90625
2555,11,3.17,39.921875
2556,11,3.45,39.9375
2557,11,3.51,39.953125
2558,11,3.29,39.96875
2559,11,2.86,39.984375
2560,11,2.34,40.0
2561,11,1.84,40.015625
2562,11,1.33,40.03125
2563,11,0.73,40.046875
2564,11,-0.13,40.0625
2565,11,-1.32,40.078125
2566,11,-2.8,40.09375
2567,11,-4.41,40.109375
2568,11,-5.87,40.125
2569,11,-6.96,40.140625
2570,11,-7.56,40.15625
2571,11,-7.69,40.171875
2572,11,-7.5,40.1875
2573,11,-7.23,40.203125
2574,11,-7.1,40.21875
2575,11,-7.36,40.234375
2576,11,-8.21,40.25
2577,11,-9.75,40.265625
2578,11,-11.89,40.28125
2579,11,-14.37,40.296875
2580,11,-16.63,40.3125
2581,11,-18.0,40.328125
2582,11,-17.92,40.34375
2583,11,-16.07,40.359375
2584,11,-12.57,40.375
2585,11,-7.91,40.390625
2586,11,-2.81,40.40625
2587,11,2.03,40.421875
2588,11,6.15,40.4375
2589,11,9.36,40.453125
2590,11,11.7,40.46875
2591,11,13.34,40.484375
2592,11,14.41,40.5
2593,11,14.98,40.515625
2594,11,15.13,40.53125
2595,11,14.93,40.546875
2596,11,14.6,40.5625
2597,11,14.36,40.578125
2598,11,14.39,40.59375
2599,11,14.73,40.609375
2600,11,15.2,40.625
2601,11,15.52,40.640625
2602,11,15.45,40.65625
2603,11,14.96,40.671875
2604,11,14.22,40.6875
2605,11,13.55,40.703125
2606,11,13.15,40.71875
2607,11,13.03,40.734375
2608,11,13.02,40.75
2609,11,12.88,40.765625
2610,11,12.46,40.78125
2611,11,11.76,40.796875
2612,11,10.92,40.8125
2613,11,10.04,40.828125
2614,11,9.16,40.84375
2615,11,8.2,40.859375
2616,11,7.1,40.875
2617,11,5.91,40.890625
2618,11,4.79,40.90625
2619,11,3.92,40.921875
2620,11,3.41,40.9375
2621,11,3.22,40.953125
2622,11,3.09,40.96875
2623,11,2.72,40.984375
2624,11,1.86,41.0
2625,11,0.46,41.015625
2626,11,-1.28,41.03125
2627,11,-2.98,41.046875
2628,11,-4.23,41.0625
2629,11,-4.86,41.078125
2630,11,-4.96,41.09375
2631,11,-4.89,41.109375
2632,11,-5.1,41.125
2633,11,-5.93,41.140625
2634,11,-7.48,41.15625
2635,11,-9.57,41.171875
2636,11,-11.89,41.1875
2637,11,-14.05,41.203125
2638,11,-15.68,41.21875
2639,11,-16.46,41.234375
2640,11,-16.11,41.25
2641,11,-14.53,41.265625
2642,11,-11.84,41.28125
2643,11,-8.37,41.296875
2644,11,-4.63,41.3125
2645,11,-1.13,41.328125
2646,11,1.77,41.34375
2647,11,4.02,41.359375
2648,11,5.67,41.375
2649,11,6.91,41.390625
2650,11,7.86,41.40625
2651,11,8.59,41.421875
2652,11,9.13,41.4375
2653,11,9.56,41.453125
2654,11,10.01,41.46875
2655,11,10.57,41.484375
2656,11,11.23,41.5
2657,11,11.8,41.515625
2658,11,12.06,41.53125
2659,11,11.83,41.546875
2660,11,11.11,41.5625
2661,11,10.11,41.578125
2662,11,9.14,41.59375
2663,11,8.45,41.609375
2664,11,8.11,41.625
2665,11,8.04,41.640625
2666,11,8.02,41.65625
2667,11,7.89,41.671875
2668,11,7.61,41.6875
2669,11,7.17,41.703125
2670,11,6.58,41.71875
2671,11,5.79,41.734375
2672,11,4.72,41.75
2673,11,3.43,41.765625
2674,11,2.1,41.78125
2675,11,0.98,41.796875
2676,11,0.31,41.8125
2677,11,0.09,41.828125
2678,11,0.08,41.84375
2679,11,-0.08,41.859375
2680,11,-0.7,41.875
2681,11,-1.82,41.890625
2682,11,-3.26,41.90625
2683,11,-4.64,41.921875
2684,11,-5.63,41.9375
2685,11,-6.17,41.953125
2686,11,-6.35,41.96875
2687,11,-6.43,41.984375
2688,11,-6.61,42.0
2689,11,-6.98,42.015625
2690,11,-7.49,42.03125
2691,11,-8.07,42.046875
2692,11,-8.77,42.0625
2693,11,-9.69,42.078125
2694,11,-10.86,42.09375
2695,11,-12.09,42.109375
2696,11,-12.95,42.125
2697,11,-12.91,42.140625
2698,11,-11.61,42.15625
2699,11,-9.09,42.171875
2700,11,-5.82,42.1875
2701,11,-2.52,42.203125
2702,11,0.23,42.21875
2703,11,2.13,42.234375
2704,11,3.31,42.25
2705,11,4.15,42.265625
2706,11,4.91,42.28125
2707,11,5.69,42.296875
2708,11,6.31,42.3125
2709,11,6.56,42.328125
2710,11,6.35,42.34375
2711,11,5.81,42.359375
2712,11,5.19,42.375
2713,11,4.7,42.390625
2714,11,4.34,42.40625
2715,11,3.98,42.421875
2716,11,3.49,42.4375
2717,11,2.88,42.453125
2718,11,2.36,42.46875
2719,11,2.25,42.484375
2720,11,2.77,42.5
2721,11,3.9,42.515625
2722,11,5.37,42.53125
2723,11,6.8,42.546875
2724,11,7.9,42.5625
2725,11,8.52,42.578125
2726,11,8.71,42.59375
2727,11,8.56,42.609375
2728,11,8.17,42.625
2729,11,7.56,42.640625
2730,11,6.72,42.65625
2731,11,5.71,42.671875
2732,11,4.65,42.6875
2733,11,3.69,42.703125
2734,11,2.94,42.71875
2735,11,2.38,42.734375
2736,11,1.87,42.75
2737,11,1.18,42.765625
2738,11,0.11,42.78125
2739,11,-1.36,42.796875
2740,11,-3.08,42.8125
2741,11,-4.74,42.828125
2742,11,-6.0,42.84375
2743,11,-6.7,42.859375
2744,11,-6.98,42.875
2745,11,-7.18,42.890625
2746,11,-7.7,42.90625
2747,11,-8.76,42.921875
2748,11,-10.26,42.9375
2749,11,-11.88,42.953125
2750,11,-13.31,42.96875
2751,11,-14.38,42.984375
2752,11,-15.11,43.0
2753,11,-15.52,43.015625
2754,11,-15.5,43.03125
2755,11,-14.77,43.046875
2756,11,-12.98,43.0625
2757,11,-10.0,43.078125
2758,11,-6.11,43.09375
2759,11,-1.89,43.109375
2760,11,1.93,43.125
2761,11,4.89,43.140625
2762,11,6.78,43.15625
2763,11,7.78,43.171875
2764,11,8.19,43.1875
2765,11,8.32,43.203125
2766,11,8.34,43.21875
2767,11,8.32,43.234375
2768,11,8.31,43.25
2769,11,8.3,43.265625
2770,11,8.24,43.28125
2771,11,8.03,43.296875
2772,11,7.56,43.3125
2773,11,6.79,43.328125
2774,11,5.84,43.34375
2775,11,4.94,43.359375
2776,11,4.34,43.375
2777,11,4.2,43.390625
2778,11,4.47,43.40625
2779,11,4.96,43.421875
2780,11,5.4,43.4375
2781,11,5.6,43.453125
2782,11,5.54,43.46875
2783,11,5.3,43.484375
2784,11,5.01,43.5
2785,11,4.72,43.515625
2786,11,4.41,43.53125
2787,11,3.94,43.546875
2788,11,3.21,43.5625
2789,11,2.19,43.578125
2790,11,0.98,43.59375
2791,11,-0.26,43.609375
2792,11,-1.38,43.625
2793,11,-2.33,43.640625
2794,11,-3.16,43.65625
2795,11,-3.94,43.671875
2796,11,-4.72,43.6875
2797,11,-5.45,43.703125
2798,11,-6.08,43.71875
2799,11,-6.57,43.734375
2800,11,-6.98,43.75
2801,11,-7.43,43.765625
2802,11,-8.05,43.78125
2803,11,-8.9,43.796875
2804,11,-9.87,43.8125
2805,11,-10.76,43.828125
2806,11,-11.38,43.84375
2807,11,-11.57,43.859375
2808,11,-11.39,43.875
2809,11,-11.04,43.890625
2810,11,-10.78,43.90625
2811,11,-10.82,43.921875
2812,11,-11.11,43.9375
2813,11,-11.4,43.953125
2814,11,-11.25,43.96875
2815,11,-10.26,43.984375
2816,11,-8.21,44.0
2817,11,-5.2,44.015625
2818,11,-1.58,44.03125
2819,11,2.14,44.046875
2820,11,5.52,44.0625
2821,11,8.29,44.078125
2822,11,10.35,44.09375
2823,11,11.74,44.109375
2824,11,12.57,44.125
2825,11,12.92,44.140625
2826,11,12.86,44.15625
2827,11,12.42,44.171875
2828,11,11.7,44.1875
2829,11,10.79,44.203125
2830,11,9.82,44.21875
2831,11,8.87,44.234375
2832,11,8.04,44.25
2833,11,7.37,44.265625
2834,11,6.86,44.28125
2835,11,6.51,44.296875
2836,11,6.28,44.3125
2837,11,6.11,44.328125
2838,11,5.93,44.34375
2839,11,5.66,44.359375
2840,11,5.28,44.375
2841,11,4.78,44.390625
2842,11,4.2,44.40625
2843,11,3.63,44.421875
2844,11,3.14,44.4375
2845,11,2.79,44.453125
2846,11,2.57,44.46875
2847,11,2.44,44.484375
2848,11,2.29,44.5
2849,11,2.05,44.515625
2850,11,1.66,44.53125
2851,11,1.13,44.546875
2852,11,0.5,44.5625
2853,11,-0.17,44.578125
2854,11,-0.81,44.59375
2855,11,-1.38,44.609375
2856,11,-1.82,44.625
2857,11,-2.14,44.640625
2858,11,-2.37,44.65625
2859,11,-2.63,44.671875
2860,11,-3.03,44.6875
2861,11,-3.69,44.703125
2862,11,-4.63,44.71875
2863,11,-5.8,44.734375
2864,11,-7.07,44.75
2865,11,-8.22,44.765625
2866,11,-9.11,44.78125
2867,11,-9.6,44.796875
2868,11,-9.69,44.8125
2869,11,-9.5,44.828125
2870,11,-9.2,44.84375
2871,11,-9.02,44.859375
2872,11,-9.13,44.875
2873,11,-9.59,44.890625
2874,11,-10.27,44.90625
2875,11,-10.87,44.921875
2876,11,-11.0,44.9375
2877,11,-10.29,44.953125
2878,11,-8.55,44.96875
2879,11,-5.88,44.984375
2880,11,-2.62,45.0
2881,11,0.72,45.015625
2882,11,3.67,45.03125
2883,11,5.99,45.046875
2884,11,7.68,45.0625
2885,11,8.94,45.078125
2886,11,10.05,45.09375
2887,11,11.1,45.109375
2888,11,12.0,45.125
2889,11,12.45,45.140625
2890,11,12.17,45.15625
2891,11,11.03,45.171875
2892,11,9.22,45.1875
2893,11,7.14,45.203125
2894,11,5.22,45.21875
2895,11,3.69,45.234375
2896,11,2.5,45.25
2897,11,1.43,45.265625
2898,11,0.26,45.28125
2899,11,-1.03,45.296875
2900,11,-2.17,45.3125
2901,11,-2.79,45.328125
2902,11,-2.68,45.34375
2903,11,-1.9,45.359375
2904,11,-0.85,45.375
2905,11,0.02,45.390625
2906,11,0.39,45.40625
2907,11,0.26,45.421875
2908,11,-0.18,45.4375
2909,11,-0.68,45.453125
2910,11,-1.08,45.46875
2911,11,-1.39,45.484375
2912,11,-1.7,45.5
2913,11,-2.05,45.515625
2914,11,-2.41,45.53125
2915,11,-2.71,45.546875
2916,11,-2.94,45.5625
2917,11,-3.24,45.578125
2918,11,-3.75,45.59375
2919,11,-4.53,45.609375
2920,11,-5.48,45.625
2921,11,-6.38,45.640625
2922,11,-6.97,45.65625
2923,11,-7.13,45.671875
2924,11,-6.92,45.6875
2925,11,-6.54,45.703125
2926,11,-6.22,45.71875
2927,11,-6.09,45.734375
2928,11,-6.14,45.75
2929,11,-6.31,45.765625
2930,11,-6.56,45.78125
2931,11,-6.93,45.796875
2932,11,-7.44,45.8125
2933,11,-8.0,45.828125
2934,11,-8.31,45.84375
2935,11,-7.98,45.859375
2936,11,-6.68,45.875
2937,11,-4.37,45.890625
2938,11,-1.43,45.90625
2939,11,1.52,45.921875
2940,11,3.82,45.9375
2941,11,5.1,45.953125
2942,11,5.45,45.96875
2943,11,5.29,45.984375
2944,11,5.15,46.0
2945,11,5.31,46.015625
2946,11,5.75,46.03125
2947,11,6.12,46.046875
2948,11,6.03,46.0625
2949,11,5.29,46.078125
2950,11,4.01,46.09375
2951,11,2.54,46.109375
2952,11,1.28,46.125
2953,11,0.41,46.140625
2954,11,-0.1,46.15625
2955,11,-0.43,46.171875
2956,11,-0.8,46.1875
2957,11,-1.35,46.203125
2958,11,-2.18,46.21875
2959,11,-3.49,46.234375
2960,11,-5.54,46.25
2961,11,-8.53,46.265625
2962,11,-12.32,46.28125
2963,11,-16.24,46.296875
2964,11,-19.22,46.3125
2965,11,-20.16,46.328125
2966,11,-18.55,46.34375
2967,11,-14.73,46.359375
2968,11,-9.87,46.375
2969,11,-5.34,46.390625
2970,11,-2.18,46.40625
2971,11,-0.58,46.421875
2972,11,0.05,46.4375
2973,11,0.59,46.453125
2974,11,1.76,46.46875
2975,11,3.68,46.484375
2976,11,6.06,46.5
2977,11,8.37,46.515625
2978,11,10.3,46.53125
2979,11,11.89,46.546875
2980,11,13.44,46.5625
2981,11,15.32,46.578125
2982,11,17.65,46.59375
2983,11,20.25,46.609375
2984,11,22.68,46.625
2985,11,24.48,46.640625
2986,11,25.43,46.65625
2987,11,25.64,46.671875
2988,11,25.59,46.6875
2989,11,25.87,46.703125
2990,11,26.96,46.71875
2991,11,28.98,46.734375
2992,11,31.7,46.75
2993,11,34.54,46.765625
2994,11,36.68,46.78125
2995,11,37.25,46.796875
2996,11,35.44,46.8125
2997,11,30.67,46.828125
2998,11,22.76,46.84375
2999,11,12.16,46.859375
3000,11,-0.02,46.875
3001,11,-12.11,46.890625
3002,11,-22.29,46.90625
3003,11,-29.16,46.921875
3004,11,-32.21,46.9375
3005,11,-31.89,46.953125
3006,11,-29.46,46.96875
3007,11,-26.38,46.984375
3008,11,-23.87,47.0
3009,11,-22.59,47.015625
3010,11,-22.67,47.03125
3011,11,-23.88,47.046875
3012,11,-25.9,47.0625
3013,11,-28.35,47.078125
3014,11,-30.77,47.09375
3015,11,-32.59,47.109375
3016,11,-33.2,47.125
3017,11,-32.13,47.140625
3018,11,-29.28,47.15625
3019,11,-24.96,47.171875
3020,11,-19.77,47.1875
3021,11,-14.28,47.203125
3022,11,-8.8,47.21875
3023,11,-3.32,47.234375
3024,11,2.32,47.25
3025,11,8.2,47.265625
3026,11,14.11,47.28125
3027,11,19.5,47.296875
3028,11,23.58,47.3125
3029,11,25.69,47.328125
3030,11,25.44,47.34375
3031,11,22.94,47.359375
3032,11,18.81,47.375
3033,11,13.95,47.390625
3034,11,9.34,47.40625
3035,11,5.78,47.421875
3036,11,3.76,47.4375
3037,11,3.43,47.453125
3038,11,4.61,47.46875
3039,11,6.86,47.484375
3040,11,9.53,47.5
3041,11,11.9,47.515625
3042,11,13.26,47.53125
3043,11,13.19,47.546875
3044,11,11.55,47.5625
3045,11,8.6,47.578125
3046,11,4.74,47.59375
3047,11,0.4,47.609375
3048,11,-4.21,47.625
3049,11,-9.04,47.640625
3050,11,-14.12,47.65625
3051,11,-19.4,47.671875
3052,11,-24.61,47.6875
3053,11,-29.29,47.703125
3054,11,-32.92,47.71875
3055,11,-35.02,47.734375
3056,11,-35.33,47.75
3057,11,-33.91,47.765625
3058,11,-31.11,47.78125
3059,11,-27.53,47.796875
3060,11,-23.89,47.8125
3061,11,-20.84,47.828125
3062,11,-18.86,47.84375
3063,11,-18.09,47.859375
3064,11,-18.37,47.875
3065,11,-19.15,47.890625
3066,11,-19.64,47.90625
3067,11,-18.83,47.921875
3068,11,-15.72,47.9375
3069,11,-9.51,47.953125
3070,11,0.03,47.96875
3071,11,12.41,47.984375
3072,11,26.25,48.0
3073,11,39.48,48.015625
3074,11,49.8,48.03125
3075,11,55.22,48.046875
3076,11,54.68,48.0625
3077,11,48.47,48.078125
3078,11,38.15,48.09375
3079,11,26.25,48.109375
3080,11,15.45,48.125
3081,11,7.88,48.140625
3082,11,4.54,48.15625
3083,11,5.27,48.171875
3084,11,9.06,48.1875
3085,11,14.58,48.203125
3086,11,20.64,48.21875
3087,11,26.41,48.234375
3088,11,31.35,48.25
3089,11,35.02,48.265625
3090,11,37.08,48.28125
3091,11,37.2,48.296875
3092,11,35.35,48.3125
3093,11,31.79,48.328125
3094,11,27.14,48.34375
3095,11,22.2,48.359375
3096,11,17.61,48.375
3097,11,13.7,48.390625
3098,11,10.36,48.40625
3099,11,7.19,48.421875
3100,11,3.67,48.4375
3101,11,-0.67,48.453125
3102,11,-6.16,48.46875
3103,11,-13.05,48.484375
3104,11,-21.65,48.5
3105,11,-32.32,48.515625
3106,11,-45.41,48.53125
3107,11,-60.92,48.546875
3108,11,-78.16,48.5625
3109,11,-95.68,48.578125
3110,11,-111.59,48.59375
3111,11,-124.07,48.609375
3112,11,-132.0,48.625
3113,11,-135.25,48.640625
3114,11,-134.44,48.65625
3115,11,-130.5,48.671875
3116,11,-124.1,48.6875
3117,11,-115.4,48.703125
3118,11,-104.35,48.71875
3119,11,-91.02,48.734375
3120,11,-76.01,48.75
3121,11,-60.38,48.765625
3122,11,-45.34,48.78125
3123,11,-31.74,48.796875
3124,11,-19.83,48.8125
3125,11,-9.33,48.828125
3126,11,0.15,48.84375
3127,11,8.71,48.859375
3128,11,15.95,48.875
3129,11,21.28,48.890625
3130,11,24.27,48.90625
3131,11,25.17,48.921875
3132,11,24.86,48.9375
3133,11,24.61,48.953125
3134,11,25.51,48.96875
3135,11,27.95,48.984375
3136,11,31.59,49.0
3137,11,35.6,49.015625
3138,11,39.22,49.03125
3139,11,42.22,49.046875
3140,11,44.96,49.0625
3141,11,48.14,49.078125
3142,11,52.26,49.09375
3143,11,57.28,49.109375
3144,11,62.6,49.125
3145,11,67.26,49.140625
3146,11,70.51,49.15625
3147,11,72.08,49.171875
3148,11,72.21,49.1875
3149,11,71.51,49.203125
3150,11,70.59,49.21875
3151,11,69.83,49.234375
3152,11,69.28,49.25
3153,11,68.73,49.265625
3154,11,67.92,49.28125
3155,11,66.72,49.296875
3156,11,65.18,49.3125
3157,11,63.49,49.328125
3158,11,61.79,49.34375
3159,11,60.04,49.359375
3160,11,57.94,49.375
3161,11,55.01,49.390625
3162,11,50.73,49.40625
3163,11,44.76,49.421875
3164,11,37.15,49.4375
3165,11,28.38,49.453125
3166,11,19.29,49.46875
3167,11,10.9,49.484375
3168,11,4.1,49.5
3169,11,-0.53,49.515625
3170,11,-2.93,49.53125
3171,11,-3.45,49.546875
3172,11,-2.81,49.5625
3173,11,-1.7,49.578125
3174,11,-0.71,49.59375
3175,11,-0.11,49.609375
3176,11,0.05,49.625
3177,11,-0.09,49.640625
3178,11,-0.42,49.65625
3179,11,-0.87,49.671875
3180,11,-1.33,49.6875
3181,11,-1.77,49.703125
3182,11,-2.13,49.71875
3183,11,-2.44,49.734375
3184,11,-2.86,49.75
3185,11,-3.63,49.765625
3186,11,-5.01,49.78125
3187,11,-7.09,49.796875
3188,11,-9.78,49.8125
3189,11,-12.75,49.828125
3190,11,-15.6,49.84375
3191,11,-17.94,49.859375
3192,11,-19.45,49.875
3193,11,-19.99,49.890625
3194,11,-19.58,49.90625
3195,11,-18.38,49.921875
3196,11,-16.69,49.9375
3197,11,-14.87,49.953125
3198,11,-13.25,49.96875
3199,11,-12.12,49.984375
3200,11,-11.56,50.0
3201,11,-11.5,50.015625
3202,11,-11.78,50.03125
3203,11,-12.13,50.046875
3204,11,-12.39,50.0625
3205,11,-12.46,50.078125
3206,11,-12.37,50.09375
3207,11,-12.23,50.109375
3208,11,-12.17,50.125
3209,11,-12.3,50.140625
3210,11,-12.66,50.15625
3211,11,-13.23,50.171875
3212,11,-13.91,50.1875
3213,11,-14.66,50.203125
3214,11,-15.43,50.21875
3215,11,-16.29,50.234375
3216,11,-17.33,50.25
3217,11,-18.69,50.265625
3218,11,-20.53,50.28125
3219,11,-23.0,50.296875
3220,11,-26.15,50.3125
3221,11,-29.85,50.328125
3222,11,-33.75,50.34375
3223,11,-37.28,50.359375
3224,11,-39.79,50.375
3225,11,-40.76,50.390625
3226,11,-40.0,50.40625
3227,11,-37.65,50.421875
3228,11,-34.11,50.4375
3229,11,-29.85,50.453125
3230,11,-25.2,50.46875
3231,11,-20.29,50.484375
3232,11,-15.08,50.5
3233,11,-9.57,50.515625
3234,11,-3.89,50.53125
3235,11,1.66,50.546875
3236,11,6.73,50.5625
3237,11,11.0,50.578125
3238,11,14.35,50.59375
3239,11,16.82,50.609375
3240,11,18.59,50.625
3241,11,19.88,50.640625
3242,11,20.81,50.65625
3243,11,21.44,50.671875
3244,11,21.72,50.6875
3245,11,21.66,50.703125
3246,11,21.32,50.71875
3247,11,20.91,50.734375
3248,11,20.64,50.75
3249,11,20.63,50.765625
3250,11,20.84,50.78125
3251,11,21.04,50.796875
3252,11,20.97,50.8125
3253,11,20.51,50.828125
3254,11,19.77,50.84375
3255,11,19.01,50.859375
3256,11,18.45,50.875
3257,11,18.07,50.890625
3258,11,17.62,50.90625
3259,11,16.72,50.921875
3260,11,15.11,50.9375
3261,11,12.85,50.953125
3262,11,10.26,50.96875
3263,11,7.76,50.984375
3264,11,5.63,51.0
3265,11,3.92,51.015625
3266,11,2.42,51.03125
3267,11,0.87,51.046875
3268,11,-0.87,51.0625
3269,11,-2.8,51.078125
3270,11,-4.8,51.09375
3271,11,-6.72,51.109375
3272,11,-8.51,51.125
3273,11,-10.22,51.140625
3274,11,-11.97,51.15625
3275,11,-13.95,51.171875
3276,11,-16.31,51.1875
3277,11,-19.12,51.203125
3278,11,-22.42,51.21875
3279,11,-26.14,51.234375
3280,11,-30.14,51.25
3281,11,-34.15,51.265625
3282,11,-37.79,51.28125
3283,11,-40.55,51.296875
3284,11,-41.86,51.3125
3285,11,-41.27,51.328125
3286,11,-38.59,51.34375
3287,11,-34.01,51.359375
3288,11,-28.06,51.375
3289,11,-21.45,51.390625
3290,11,-14.84,51.40625
3291,11,-8.63,51.421875
3292,11,-2.94,51.4375
3293,11,2.27,51.453125
3294,11,7.08,51.46875
3295,11,11.47,51.484375
3296,11,15.35,51.5
3297,11,18.63,51.515625
3298,11,21.29,51.53125
3299,11,23.43,51.546875
3300,11,25.13,51.5625
3301,11,26.45,51.578125
3302,11,27.36,51.59375
3303,11,27.8,51.609375
3304,11,27.76,51.625
3305,11,27.33,51.640625
3306,11,26.72,51.65625
3307,11,26.11,51.671875
3308,11,25.68,51.6875
3309,11,25.5,51.703125
3310,11,25.56,51.71875
3311,11,25.77,51.734375
3312,11,26.0,51.75
3313,11,26.1,51.765625
3314,11,25.82,51.78125
3315,11,25.0,51.796875
3316,11,23.46,51.8125
3317,11,21.25,51.828125
3318,11,18.55,51.84375
3319,11,15.64,51.859375
3320,11,12.79,51.875
3321,11,10.16,51.890625
3322,11,7.73,51.90625
3323,11,5.39,51.921875
3324,11,3.01,51.9375
3325,11,0.56,51.953125
3326,11,-1.96,51.96875
3327,11,-4.45,51.984375
3328,11,-6.85,52.0
3329,11,-9.18,52.015625
3330,11,-11.45,52.03125
3331,11,-13.66,52.046875
3332,11,-15.81,52.0625
3333,11,-17.84,52.078125
3334,11,-19.75,52.09375
3335,11,-21.69,52.109375
3336,11,-23.9,52.125
3337,11,-26.6,52.140625
3338,11,-29.83,52.15625
3339,11,-33.28,52.171875
3340,11,-36.27,52.1875
3341,11,-37.91,52.203125
3342,11,-37.44,52.21875
3343,11,-34.52,52.234375
3344,11,-29.38,52.25
3345,11,-22.73,52.265625
3346,11,-15.49,52.28125
3347,11,-8.47,52.296875
3348,11,-2.18,52.3125
3349,11,3.18,52.328125
3350,11,7.64,52.34375
3351,11,11.32,52.359375
3352,11,14.31,52.375
3353,11,16.66,52.390625
3354,11,18.39,52.40625
3355,11,19.52,52.421875
3356,11,20.01,52.4375
3357,11,19.83,52.453125
3358,11,19.04,52.46875
3359,11,17.76,52.484375
3360,11,16.27,52.5
3361,11,14.85,52.515625
3362,11,13.73,52.53125
3363,11,13.01,52.546875
3364,11,12.61,52.5625
3365,11,12.4,52.578125
3366,11,12.26,52.59375
3367,11,12.15,52.609375
3368,11,12.07,52.625
3369,11,12.03,52.640625
3370,11,11.98,52.65625
3371,11,11.81,52.671875
3372,11,11.43,52.6875
3373,11,10.81,52.703125
3374,11,10.05,52.71875
3375,11,9.32,52.734375
3376,11,8.75,52.75
3377,11,8.36,52.765625
3378,11,8.03,52.78125
3379,11,7.56,52.796875
3380,11,6.78,52.8125
3381,11,5.61,52.828125
3382,11,4.07,52.84375
3383,11,2.21,52.859375
3384,11,0.11,52.875
3385,11,-2.19,52.890625
3386,11,-4.68,52.90625
3387,11,-7.36,52.921875
3388,11,-10.21,52.9375
3389,11,-13.21,52.953125
3390,11,-16.24,52.96875
3391,11,-19.14,52.984375
3392,11,-21.81,53.0
3393,11,-24.27,53.015625
3394,11,-26.71,53.03125
3395,11,-29.53,53.046875
3396,11,-32.99,53.0625
3397,11,-37.0,53.078125
3398,11,-40.91,53.09375
3399,11,-43.65,53.109375
3400,11,-44.11,53.125
3401,11,-41.59,53.140625
3402,11,-36.18,53.15625
3403,11,-28.65,53.171875
3404,11,-20.11,53.1875
3405,11,-11.55,53.203125
3406,11,-3.58,53.21875
3407,11,3.68,53.234375
3408,11,10.27,53.25
3409,11,16.2,53.265625
3410,11,21.34,53.28125
3411,11,25.45,53.296875
3412,11,28.43,53.3125
3413,11,30.34,53.328125
3414,11,31.49,53.34375
3415,11,32.2,53.359375
3416,11,32.65,53.375
3417,11,32.83,53.390625
3418,11,32.55,53.40625
3419,11,31.64,53.421875
3420,11,30.15,53.4375
3421,11,28.32,53.453125
3422,11,26.59,53.46875
3423,11,25.32,53.484375
3424,11,24.66,53.5
3425,11,24.49,53.515625
3426,11,24.52,53.53125
3427,11,24.46,53.546875
3428,11,24.14,53.5625
3429,11,23.57,53.578125
3430,11,22.83,53.59375
3431,11,22.04,53.609375
3432,11,21.23,53.625
3433,11,20.44,53.640625
3434,11,19.63,53.65625
3435,11,18.77,53.671875
3436,11,17.79,53.6875
3437,11,16.6,53.703125
3438,11,15.1,53.71875
3439,11,13.24,53.734375
3440,11,11.03,53.75
3441,11,8.53,53.765625
3442,11,5.86,53.78125
3443,11,3.11,53.796875
3444,11,0.37,53.8125
3445,11,-2.32,53.828125
3446,11,-4.91,53.84375
3447,11,-7.34,53.859375
3448,11,-9.6,53.875
3449,11,-11.73,53.890625
3450,11,-13.79,53.90625
3451,11,-15.91,53.921875
3452,11,-18.21,53.9375
3453,11,-20.82,53.953125
3454,11,-23.85,53.96875
3455,11,-27.36,53.984375
3456,11,-31.26,54.0
3457,11,-35.21,54.015625
3458,11,-38.6,54.03125
3459,11,-40.66,54.046875
3460,11,-40.66,54.0625
3461,11,-38.24,54.078125
3462,11,-33.53,54.09375
3463,11,-27.09,54.109375
3464,11,-19.73,54.125
3465,11,-12.2,54.140625
3466,11,-4.97,54.15625
3467,11,1.67,54.171875
3468,11,7.63,54.1875
3469,11,12.79,54.203125
3470,11,17.05,54.21875
3471,11,20.35,54.234375
3472,11,22.76,54.25
3473,11,24.45,54.265625
3474,11,25.63,54.28125
3475,11,26.42,54.296875
3476,11,26.78,54.3125
3477,11,26.58,54.328125
3478,11,25.76,54.34375
3479,11,24.37,54.359375
3480,11,22.7,54.375
3481,11,21.1,54.390625
3482,11,19.92,54.40625
3483,11,19.32,54.421875
3484,11,19.32,54.4375
3485,11,19.78,54.453125
3486,11,20.5,54.46875
3487,11,21.29,54.484375
3488,11,21.95,54.5
3489,11,22.35,54.515625
3490,11,22.41,54.53125
3491,11,22.11,54.546875
3492,11,21.52,54.5625
3493,11,20.75,54.578125
3494,11,19.85,54.59375
3495,11,18.86,54.609375
3496,11,17.7,54.625
3497,11,16.28,54.640625
3498,11,14.58,54.65625
3499,11,12.67,54.671875
3500,11,10.73,54.6875
3501,11,8.91,54.703125
3502,11,7.28,54.71875
3503,11,5.77,54.734375
3504,11,4.17,54.75
3505,11,2.29,54.765625
3506,11,0.08,54.78125
3507,11,-2.32,54.796875
3508,11,-4.6,54.8125
3509,11,-6.46,54.828125
3510,11,-7.75,54.84375
3511,11,-8.53,54.859375
3512,11,-9.14,54.875
3513,11,-9.94,54.890625
3514,11,-11.29,54.90625
3515,11,-13.43,54.921875
3516,11,-16.34,54.9375
3517,11,-19.77,54.953125
3518,11,-23.13,54.96875
3519,11,-25.59,54.984375
3520,11,-26.27,55.0
3521,11,-24.5,55.015625
3522,11,-20.11,55.03125
3523,11,-13.59,55.046875
3524,11,-5.92,55.0625
3525,11,1.74,55.078125
3526,11,8.48,55.09375
3527,11,13.91,55.109375
3528,11,18.17,55.125
3529,11,21.8,55.140625
3530,11,25.28,55.15625
3531,11,28.92,55.171875
3532,11,32.54,55.1875
3533,11,35.71,55.203125
3534,11,37.85,55.21875
3535,11,38.64,55.234375
3536,11,38.12,55.25
3537,11,36.75,55.265625
3538,11,35.25,55.28125
3539,11,34.27,55.296875
3540,11,34.19,55.3125
3541,11,35.06,55.328125
3542,11,36.71,55.34375
3543,11,38.99,55.359375
3544,11,41.81,55.375
3545,11,45.15,55.390625
3546,11,48.86,55.40625
3547,11,52.55,55.421875
3548,11,55.54,55.4375
3549,11,57.1,55.453125
3550,11,56.72,55.46875
3551,11,54.31,55.484375
3552,11,50.21,55.5
3553,11,45.06,55.515625
3554,11,39.53,55.53125
3555,11,34.13,55.546875
3556,11,29.13,55.5625
3557,11,24.69,55.578125
3558,11,20.88,55.59375
3559,11,17.89,55.609375
3560,11,15.84,55.625
3561,11,14.78,55.640625
3562,11,14.49,55.65625
3563,11,14.6,55.671875
3564,11,14.73,55.6875
3565,11,14.64,55.703125
3566,11,14.33,55.71875
3567,11,13.95,55.734375
3568,11,13.66,55.75
3569,11,13.4,55.765625
3570,11,12.96,55.78125
3571,11,11.97,55.796875
3572,11,10.11,55.8125
3573,11,7.09,55.828125
3574,11,2.69,55.84375
3575,11,-3.26,55.859375
3576,11,-10.98,55.875
3577,11,-20.42,55.890625
3578,11,-31.25,55.90625
3579,11,-42.67,55.921875
3580,11,-53.62,55.9375
3581,11,-63.05,55.953125
3582,11,-70.29,55.96875
3583,11,-75.18,55.984375
3584,11,-78.05,56.0
3585,11,-79.5,56.015625
3586,11,-80.1,56.03125
3587,11,-80.27,56.046875
3588,11,-80.33,56.0625
3589,11,-80.55,56.078125
3590,11,-81.23,56.09375
3591,11,-82.62,56.109375
3592,11,-84.81,56.125
3593,11,-87.6,56.140625
3594,11,-90.53,56.15625
3595,11,-93.05,56.171875
3596,11,-94.7,56.1875
3597,11,-95.33,56.203125
3598,11,-95.15,56.21875
3599,11,-94.71,56.234375
3600,11,-94.66,56.25
3601,11,-95.54,56.265625
3602,11,-97.6,56.28125
3603,11,-100.68,56.296875
3604,11,-104.16,56.3125
3605,11,-107.1,56.328125
3606,11,-108.36,56.34375
3607,11,-106.76,56.359375
3608,11,-101.29,56.375
3609,11,-91.4,56.390625
3610,11,-77.05,56.40625
3611,11,-58.86,56.421875
3612,11,-37.94,56.4375
3613,11,-15.79,56.453125
3614,11,5.96,56.46875
3615,11,25.71,56.484375
3616,11,42.04,56.5
3617,11,53.88,56.515625
3618,11,60.6,56.53125
3619,11,62.18,56.546875
3620,11,59.3,56.5625
3621,11,53.23,56.578125
3622,11,45.59,56.59375
3623,11,37.94,56.609375
3624,11,31.4,56.625
3625,11,26.44,56.640625
3626,11,22.99,56.65625
3627,11,20.51,56.671875
3628,11,18.35,56.6875
3629,11,15.88,56.703125
3630,11,12.68,56.71875
3631,11,8.63,56.734375
3632,11,3.89,56.75
3633,11,-1.05,56.765625
3634,11,-5.53,56.78125
3635,11,-8.86,56.796875
3636,11,-10.49,56.8125
3637,11,-10.23,56.828125
3638,11,-8.35,56.84375
3639,11,-5.49,56.859375
3640,11,-2.49,56.875
3641,11,-0.04,56.890625
3642,11,1.57,56.90625
3643,11,2.65,56.921875
3644,11,3.95,56.9375
3645,11,6.29,56.953125
3646,11,10.13,56.96875
3647,11,15.26,56.984375
3648,11,20.82,57.0
3649,11,25.71,57.015625
3650,11,29.05,57.03125
3651,11,30.58,57.046875
3652,11,30.61,57.0625
3653,11,29.83,57.078125
3654,11,28.89,57.09375
3655,11,28.14,57.109375
3656,11,27.66,57.125
3657,11,27.41,57.140625
3658,11,27.34,57.15625
3659,11,27.54,57.171875
3660,11,28.07,57.1875
3661,11,28.91,57.203125
3662,11,29.91,57.21875
3663,11,30.79,57.234375
3664,11,31.27,57.25
3665,11,31.11,57.265625
3666,11,30.24,57.28125
3667,11,28.7,57.296875
3668,11,26.69,57.3125
3669,11,24.48,57.328125
3670,11,22.37,57.34375
3671,11,20.54,57.359375
3672,11,19.05,57.375
3673,11,17.83,57.390625
3674,11,16.77,57.40625
3675,11,15.78,57.421875
3676,11,14.81,57.4375
3677,11,13.77,57.453125
3678,11,12.47,57.46875
3679,11,10.67,57.484375
3680,11,8.22,57.5
3681,11,5.12,57.515625
3682,11,1.64,57.53125
3683,11,-1.84,57.546875
3684,11,-4.95,57.5625
3685,11,-7.55,57.578125
3686,11,-9.73,57.59375
3687,11,-11.79,57.609375
3688,11,-14.07,57.625
3689,11,-16.81,57.640625
3690,11,-20.1,57.65625
3691,11,-23.83,57.671875
3692,11,-27.7,57.6875
3693,11,-31.28,57.703125
3694,11,-33.98,57.71875
3695,11,-35.2,57.734375
3696,11,-34.42,57.75
3697,11,-31.45,57.765625
3698,11,-26.46,57.78125
3699,11,-20.03,57.796875
3700,11,-12.95,57.8125
3701,11,-6.0,57.828125
3702,11,0.21,57.84375
3703,11,5.45,57.859375
3704,11,9.73,57.875
3705,11,13.21,57.890625
3706,11,16.01,57.90625
3707,11,18.16,57.921875
3708,11,19.55,57.9375
3709,11,20.13,57.953125
3710,11,20.0,57.96875
3711,11,19.43,57.984375
3712,11,18.83,58.0
3713,11,18.44,58.015625
3714,11,18.36,58.03125
3715,11,18.45,58.046875
3716,11,18.47,58.0625
3717,11,18.27,58.078125
3718,11,17.89,58.09375
3719,11,17.51,58.109375
3720,11,17.31,58.125
3721,11,17.35,58.140625
3722,11,17.47,58.15625
3723,11,17.44,58.171875
3724,11,17.13,58.1875
3725,11,16.57,58.203125
3726,11,15.95,58.21875
3727,11,15.4,58.234375
3728,11,14.89,58.25
3729,11,14.16,58.265625
3730,11,12.94,58.28125
3731,11,11.01,58.296875
3732,11,8.45,58.3125
3733,11,5.61,58.328125
3734,11,2.92,58.34375
3735,11,0.75,58.359375
3736,11,-0.77,58.375
3737,11,-1.73,58.390625
3738,11,-2.41,58.40625
3739,11,-3.12,58.421875
3740,11,-4.11,58.4375
3741,11,-5.49,58.453125
3742,11,-7.26,58.46875
3743,11,-9.27,58.484375
3744,11,-11.32,58.5
3745,11,-13.24,58.515625
3746,11,-14.99,58.53125
3747,11,-16.66,58.546875
3748,11,-18.49,58.5625
3749,11,-20.75,58.578125
3750,11,-23.65,58.59375
3751,11,-27.14,58.609375
3752,11,-30.88,58.625
3753,11,-34.17,58.640625
3754,11,-36.2,58.65625
3755,11,-36.23,58.671875
3756,11,-33.84,58.6875
3757,11,-29.09,58.703125
3758,11,-22.49,58.71875
3759,11,-14.86,58.734375
3760,11,-7.06,58.75
3761,11,0.16,58.765625
3762,11,6.31,58.78125
3763,11,11.15,58.796875
3764,11,14.61,58.8125
3765,11,16.81,58.828125
3766,11,18.0,58.84375
3767,11,18.57,58.859375
3768,11,18.9,58.875
3769,11,19.29,58.890625
3770,11,19.78,58.90625
3771,11,20.15,58.921875
3772,11,20.11,58.9375
3773,11,19.43,58.953125
3774,11,18.16,58.96875
3775,11,16.66,58.984375
3776,11,15.44,59.0
3777,11,14.9,59.015625
3778,11,15.14,59.03125
3779,11,15.93,59.046875
3780,11,16.81,59.0625
3781,11,17.37,59.078125
3782,11,17.36,59.09375
3783,11,16.81,59.109375
3784,11,15.93,59.125
3785,11,14.98,59.140625
3786,11,14.11,59.15625
3787,11,13.34,59.171875
3788,11,12.58,59.1875
3789,11,11.7,59.203125
3790,11,10.64,59.21875
3791,11,9.38,59.234375
3792,11,7.94,59.25
3793,11,6.32,59.265625
3794,11,4.54,59.28125
3795,11,2.56,59.296875
3796,11,0.4,59.3125
3797,11,-1.89,59.328125
3798,11,-4.22,59.34375
3799,11,-6.51,59.359375
3800,11,-8.67,59.375
3801,11,-10.76,59.390625
3802,11,-12.85,59.40625
3803,11,-15.11,59.421875
3804,11,-17.67,59.4375
3805,11,-20.54,59.453125
3806,11,-23.6,59.46875
3807,11,-26.69,59.484375
3808,11,-29.63,59.5
3809,11,-32.37,59.515625
3810,11,-35.04,59.53125
3811,11,-37.72,59.546875
3812,11,-40.32,59.5625
3813,11,-42.39,59.578125
3814,11,-43.23,59.59375
3815,11,-42.12,59.609375
3816,11,-38.66,59.625
3817,11,-33.05,59.640625
3818,11,-26.0,59.65625
3819,11,-18.49,59.671875
3820,11,-11.39,59.6875
3821,11,-5.2,59.703125
3822,11,0.05,59.71875
3823,11,4.61,59.734375
3824,11,8.73,59.75
3825,11,12.52,59.765625
3826,11,15.92,59.78125
3827,11,18.75,59.796875
3828,11,20.87,59.8125
3829,11,22.24,59.828125
3830,11,22.92,59.84375
3831,11,23.05,59.859375
3832,11,22.78,59.875
3833,11,22.21,59.890625
3834,11,21.42,59.90625
3835,11,20.5,59.921875
3836,11,19.53,59.9375
3837,11,18.67,59.953125
3838,11,18.1,59.96875
3839,11,17.95,59.984375
3840,11,18.27,60.0
3841,11,19.0,60.015625
3842,11,19.91,60.03125
3843,11,20.73,60.046875
3844,11,21.2,60.0625
3845,11,21.18,60.078125
3846,11,20.66,60.09375
3847,11,19.75,60.109375
3848,11,18.55,60.125
3849,11,17.16,60.140625
3850,11,15.56,60.15625
3851,11,13.71,60.171875
3852,11,11.52,60.1875
3853,11,9.0,60.203125
3854,11,6.25,60.21875
3855,11,3.48,60.234375
3856,11,0.92,60.25
3857,11,-1.26,60.265625
3858,11,-3.03,60.28125
3859,11,-4.55,60.296875
3860,11,-6.08,60.3125
3861,11,-7.87,60.328125
3862,11,-10.06,60.34375
3863,11,-12.58,60.359375
3864,11,-15.23,60.375
3865,11,-17.79,60.390625
3866,11,-20.1,60.40625
3867,11,-22.16,60.421875
3868,11,-24.11,60.4375
3869,11,-26.15,60.453125
3870,11,-28.49,60.46875
3871,11,-31.23,60.484375
3872,11,-34.37,60.5
3873,11,-37.75,60.515625
3874,11,-40.97,60.53125
3875,11,-43.45,60.546875
3876,11,-44.51,60.5625
3877,11,-43.54,60.578125
3878,11,-40.24,60.59375
3879,11,-34.71,60.609375
3880,11,-27.5,60.625
3881,11,-19.42,60.640625
3882,11,-11.28,60.65625
3883,11,-3.72,60.671875
3884,11,2.94,60.6875
3885,11,8.62,60.703125
3886,11,13.35,60.71875
3887,11,17.14,60.734375
3888,11,19.93,60.75
3889,11,21.64,60.765625
3890,11,22.29,60.78125
3891,11,22.01,60.796875
3892,11,21.18,60.8125
3893,11,20.24,60.828125
3894,11,19.6,60.84375
3895,11,19.5,60.859375
3896,11,19.9,60.875
3897,11,20.49,60.890625
3898,11,20.85,60.90625
3899,11,20.67,60.921875
3900,11,19.83,60.9375
3901,11,18.57,60.953125
3902,11,17.33,60.96875
3903,11,16.59,60.984375
3904,11,16.59,61.0
3905,11,17.2,61.015625
3906,11,17.99,61.03125
3907,11,18.48,61.046875
3908,11,18.37,61.0625
3909,11,17.62,61.078125
3910,11,16.52,61.09375
3911,11,15.41,61.109375
3912,11,14.47,61.125
3913,11,13.66,61.140625
3914,11,12.8,61.15625
3915,11,11.67,61.171875
3916,11,10.2,61.1875
3917,11,8.43,61.203125
3918,11,6.5,61.21875
3919,11,4.5,61.234375
3920,11,2.45,61.25
3921,11,0.31,61.265625
3922,11,-1.92,61.28125
3923,11,-4.26,61.296875
3924,11,-6.69,61.3125
3925,11,-9.27,61.328125
3926,11,-12.0,61.34375
3927,11,-14.86,61.359375
3928,11,-17.71,61.375
3929,11,-20.35,61.390625
3930,11,-22.69,61.40625
3931,11,-24.85,61.421875
3932,11,-27.16,61.4375
3933,11,-29.97,61.453125
3934,11,-33.37,61.46875
3935,11,-36.99,61.484375
3936,11,-40.1,61.5
3937,11,-41.78,61.515625
3938,11,-41.29,61.53125
3939,11,-38.4,61.546875
3940,11,-33.33,61.5625
3941,11,-26.68,61.578125
3942,11,-19.17,61.59375
3943,11,-11.51,61.609375
3944,11,-4.2,61.625
3945,11,2.31,61.640625
3946,11,7.75,61.65625
3947,11,11.9,61.671875
3948,11,14.67,61.6875
3949,11,16.17,61.703125
3950,11,16.63,61.71875
3951,11,16.4,61.734375
3952,11,15.86,61.75
3953,11,15.3,61.765625
3954,11,14.89,61.78125
3955,11,14.67,61.796875
3956,11,14.55,61.8125
3957,11,14.43,61.828125
3958,11,14.27,61.84375
3959,11,14.07,61.859375
3960,11,13.89,61.875
3961,11,13.79,61.890625
3962,11,13.79,61.90625
3963,11,13.89,61.921875
3964,11,14.09,61.9375
3965,11,14.44,61.953125
3966,11,14.96,61.96875
3967,11,15.63,61.984375
3968,11,16.29,62.0
3969,11,16.72,62.015625
3970,11,16.65,62.03125
3971,11,15.91,62.046875
3972,11,14.43,62.0625
3973,11,12.34,62.078125
3974,11,9.95,62.09375
3975,11,7.6,62.109375
3976,11,5.64,62.125
3977,11,4.22,62.140625
3978,11,3.29,62.15625
3979,11,2.58,62.171875
3980,11,1.73,62.1875
3981,11,0.47,62.203125
3982,11,-1.33,62.21875
3983,11,-3.57,62.234375
3984,11,-6.08,62.25
3985,11,-8.67,62.265625
3986,11,-11.21,62.28125
3987,11,-13.64,62.296875
3988,11,-15.88,62.3125
3989,11,-17.94,62.328125
3990,11,-19.89,62.34375
3991,11,-21.95,62.359375
3992,11,-24.47,62.375
3993,11,-27.7,62.390625
3994,11,-31.59,62.40625
3995,11,-35.66,62.421875
3996,11,-39.08,62.4375
3997,11,-40.9,62.453125
3998,11,-40.39,62.46875
3999,11,-37.27,62.484375
4000,11,-31.72,62.5
4001,11,-24.33,62.515625
4002,11,-15.87,62.53125
4003,11,-7.18,62.546875
4004,11,0.98,62.5625
4005,11,8.02,62.578125
4006,11,13.63,62.59375
4007,11,17.74,62.609375
4008,11,20.57,62.625
4009,11,22.49,62.640625
4010,11,23.82,62.65625
4011,11,24.77,62.671875
4012,11,25.42,62.6875
4013,11,25.73,62.703125
4014,11,25.7,62.71875
4015,11,25.41,62.734375
4016,11,25.01,62.75
4017,11,24.64,62.765625
4018,11,24.31,62.78125
4019,11,23.88,62.796875
4020,11,23.16,62.8125
4021,11,22.03,62.828125
4022,11,20.54,62.84375
4023,11,18.95,62.859375
4024,11,17.63,62.875
4025,11,16.85,62.890625
4026,11,16.64,62.90625
4027,11,16.75,62.921875
4028,11,16.8,62.9375
4029,11,16.45,62.953125
4030,11,15.57,62.96875
4031,11,14.25,62.984375
4032,11,12.74,63.0
4033,11,11.22,63.015625
4034,11,9.72,63.03125
4035,11,8.1,63.046875
4036,11,6.18,63.0625
4037,11,3.9,63.078125
4038,11,1.41,63.09375
4039,11,-0.96,63.109375
4040,11,-2.94,63.125
4041,11,-4.42,63.140625
4042,11,-5.53,63.15625
4043,11,-6.64,63.171875
4044,11,-8.1,63.1875
4045,11,-10.1,63.203125
4046,11,-12.53,63.21875
4047,11,-15.08,63.234375
4048,11,-17.45,63.25
4049,11,-19.48,63.265625
4050,11,-21.26,63.28125
4051,11,-23.05,63.296875
4052,11,-25.14,63.3125
4053,11,-27.74,63.328125
4054,11,-30.89,63.34375
4055,11,-34.47,63.359375
4056,11,-38.19,63.375
4057,11,-41.57,63.390625
4058,11,-44.02,63.40625
4059,11,-44.87,63.421875
4060,11,-43.6,63.4375
4061,11,-39.97,63.453125
4062,11,-34.2,63.46875
4063,11,-26.95,63.484375
4064,11,-19.1,63.5
4065,11,-11.52,63.515625
4066,11,-4.85,63.53125
4067,11,0.6,63.546875
4068,11,4.82,63.5625
4069,11,8.01,63.578125
4070,11,10.46,63.59375
4071,11,12.5,63.609375
4072,11,14.38,63.625
4073,11,16.32,63.640625
4074,11,18.39,63.65625
4075,11,20.52,63.671875
4076,11,22.55,63.6875
4077,11,24.27,63.703125
4078,11,25.48,63.71875
4079,11,26.07,63.734375
4080,11,26.02,63.75
4081,11,25.43,63.765625
4082,11,24.53,63.78125
4083,11,23.56,63.796875
4084,11,22.82,63.8125
4085,11,22.47,63.828125
4086,11,22.54,63.84375
4087,11,22.91,63.859375
4088,11,23.28,63.875
4089,11,23.37,63.890625
4090,11,22.95,63.90625
4091,11,21.91,63.921875
4092,11,20.3,63.9375
4093,11,18.26,63.953125
4094,11,16.0,63.96875
4095,11,13.74,63.984375
4096,11,11.72,64.0
4097,11,10.07,64.015625
4098,11,8.78,64.03125
4099,11,7.72,64.046875
4100,11,6.62,64.0625
4101,11,5.27,64.078125
4102,11,3.51,64.09375
4103,11,1.38,64.109375
4104,11,-1.02,64.125
4105,11,-3.56,64.140625
4106,11,-6.21,64.15625
4107,11,-9.01,64.171875
4108,11,-12.02,64.1875
4109,11,-15.23,64.203125
4110,11,-18.49,64.21875
4111,11,-21.56,64.234375
4112,11,-24.27,64.25
4113,11,-26.62,64.265625
4114,11,-28.82,64.28125
4115,11,-31.23,64.296875
4116,11,-34.2,64.3125
4117,11,-37.86,64.328125
4118,11,-41.97,64.34375
4119,11,-45.89,64.359375
4120,11,-48.77,64.375
4121,11,-49.76,64.390625
4122,11,-48.35,64.40625
4123,11,-44.47,64.421875
4124,11,-38.5,64.4375
4125,11,-31.13,64.453125
4126,11,-23.09,64.46875
4127,11,-15.02,64.484375
4128,11,-7.45,64.5
4129,11,-0.77,64.515625
4130,11,4.72,64.53125
4131,11,8.9,64.546875
4132,11,11.84,64.5625
4133,11,13.88,64.578125
4134,11,15.37,64.59375
4135,11,16.68,64.609375
4136,11,17.92,64.625
4137,11,18.96,64.640625
4138,11,19.59,64.65625
4139,11,19.65,64.671875
4140,11,19.14,64.6875
4141,11,18.24,64.703125
4142,11,17.2,64.71875
4143,11,16.25,64.734375
4144,11,15.56,64.75
4145,11,15.2,64.765625
4146,11,15.13,64.78125
4147,11,15.32,64.796875
4148,11,15.62,64.8125
4149,11,15.87,64.828125
4150,11,15.93,64.84375
4151,11,15.79,64.859375
4152,11,15.49,64.875
4153,11,15.15,64.890625
4154,11,14.76,64.90625
4155,11,14.16,64.921875
4156,11,13.04,64.9375
4157,11,11.05,64.953125
4158,11,7.96,64.96875
4159,11,3.84,64.984375
4160,11,-0.98,65.0
4161,11,-5.83,65.015625
4162,11,-9.94,65.03125
4163,11,-12.67,65.046875
4164,11,-13.63,65.0625
4165,11,-12.88,65.078125
4166,11,-10.68,65.09375
4167,11,-7.31,65.109375
4168,11,-2.87,65.125
4169,11,2.8,65.140625
4170,11,9.88,65.15625
4171,11,18.28,65.171875
4172,11,27.49,65.1875
4173,11,36.7,65.203125
4174,11,45.08,65.21875
4175,11,52.06,65.234375
4176,11,57.53,65.25
4177,11,61.62,65.265625
4178,11,64.56,65.28125
4179,11,66.58,65.296875
4180,11,68.08,65.3125
4181,11,69.7,65.328125
4182,11,72.33,65.34375
4183,11,76.77,65.359375
4184,11,83.28,65.375
4185,11,91.24,65.390625
4186,11,99.3,65.40625
4187,11,105.87,65.421875
4188,11,109.73,65.4375
4189,11,110.45,65.453125
4190,11,108.3,65.46875
4191,11,103.89,65.484375
4192,11,97.67,65.5
4193,11,89.62,65.515625
4194,11,79.44,65.53125
4195,11,66.83,65.546875
4196,11,51.87,65.5625
4197,11,35.11,65.578125
4198,11,17.43,65.59375
4199,11,-0.27,65.609375
4200,11,-17.34,65.625
4201,11,-33.41,65.640625
4202,11,-48.17,65.65625
4203,11,-61.19,65.671875
4204,11,-71.79,65.6875
4205,11,-79.17,65.703125
4206,11,-82.76,65.71875
4207,11,-82.47,65.734375
4208,11,-78.84,65.75
4209,11,-72.83,65.765625
4210,11,-65.44,65.78125
4211,11,-57.42,65.796875
4212,11,-49.09,65.8125
4213,11,-40.46,65.828125
4214,11,-31.4,65.84375
4215,11,-21.84,65.859375
4216,11,-11.91,65.875
4217,11,-1.88,65.890625
4218,11,7.91,65.90625
4219,11,17.13,65.921875
4220,11,25.51,65.9375
4221,11,32.85,65.953125
4222,11,38.98,65.96875
4223,11,43.82,65.984375
4224,11,47.33,66.0
4225,11,49.59,66.015625
4226,11,50.75,66.03125
4227,11,50.92,66.046875
4228,11,50.17,66.0625
4229,11,48.47,66.078125
4230,11,45.68,66.09375
4231,11,41.66,66.109375
4232,11,36.29,66.125
4233,11,29.5,66.140625
4234,11,21.23,66.15625
4235,11,11.34,66.171875
4236,11,-0.33,66.1875
4237,11,-13.89,66.203125
4238,11,-29.11,66.21875
4239,11,-45.3,66.234375
4240,11,-61.29,66.25
4241,11,-75.61,66.265625
4242,11,-86.85,66.28125
4243,11,-94.02,66.296875
4244,11,-96.82,66.3125
4245,11,-95.62,66.328125
4246,11,-91.3,66.34375
4247,11,-84.89,66.359375
4248,11,-77.37,66.375
4249,11,-69.46,66.390625
4250,11,-61.68,66.40625
4251,11,-54.43,66.421875
4252,11,-47.99,66.4375
4253,11,-42.59,66.453125
4254,11,-38.29,66.46875
4255,11,-34.99,66.484375
4256,11,-32.41,66.5
4257,11,-30.17,66.515625
4258,11,-27.99,66.53125
4259,11,-25.67,66.546875
4260,11,-23.1,66.5625
4261,11,-20.24,66.578125
4262,11,-16.97,66.59375
4263,11,-13.09,66.609375
4264,11,-8.37,66.625
4265,11,-2.62,66.640625
4266,11,4.18,66.65625
4267,11,11.86,66.671875
4268,11,20.06,66.6875
4269,11,28.37,66.703125
4270,11,36.42,66.71875
4271,11,44.05,66.734375
4272,11,51.25,66.75
4273,11,58.06,66.765625
4274,11,64.46,66.78125
4275,11,70.21,66.796875
4276,11,74.86,66.8125
4277,11,77.91,66.828125
4278,11,79.0,66.84375
4279,11,77.98,66.859375
4280,11,74.84,66.875
4281,11,69.58,66.890625
4282,11,62.14,66.90625
4283,11,52.42,66.921875
4284,11,40.5,66.9375
4285,11,26.9,66.953125
4286,11,12.65,66.96875
4287,11,-0.92,66.984375
4288,11,-12.55,67.0
4289,11,-21.51,67.015625
4290,11,-27.75,67.03125
4291,11,-31.84,67.046875
4292,11,-34.6,67.0625
4293,11,-36.8,67.078125
4294,11,-38.84,67.09375
4295,11,-40.83,67.109375
4296,11,-42.65,67.125
4297,11,-44.17,67.140625
4298,11,-45.36,67.15625
4299,11,-46.28,67.171875
4300,11,-47.08,67.1875
4301,11,-47.95,67.203125
4302,11,-49.03,67.21875
4303,11,-50.33,67.234375
4304,11,-51.69,67.25
4305,11,-52.76,67.265625
4306,11,-53.07,67.28125
4307,11,-52.17,67.296875
4308,11,-49.75,67.3125
4309,11,-45.86,67.328125
4310,11,-40.77,67.34375
4311,11,-34.93,67.359375
4312,11,-28.84,67.375
4313,11,-22.9,67.390625
4314,11,-17.44,67.40625
4315,11,-12.69,67.421875
4316,11,-8.86,67.4375
4317,11,-6.05,67.453125
4318,11,-4.29,67.46875
4319,11,-3.46,67.484375
4320,11,-3.26,67.5
4321,11,-3.38,67.515625
4322,11,-3.54,67.53125
4323,11,-3.68,67.546875
4324,11,-3.87,67.5625
4325,11,-4.38,67.578125
4326,11,-5.39,67.59375
4327,11,-6.99,67.609375
4328,11,-9.01,67.625
4329,11,-11.1,67.640625
4330,11,-12.92,67.65625
4331,11,-14.18,67.671875
4332,11,-14.81,67.6875
4333,11,-14.92,67.703125
4334,11,-14.73,67.71875
4335,11,-14.43,67.734375
4336,11,-14.19,67.75
4337,11,-14.13,67.765625
4338,11,-14.28,67.78125
4339,11,-14.68,67.796875
4340,11,-15.24,67.8125
4341,11,-15.88,67.828125
4342,11,-16.45,67.84375
4343,11,-16.84,67.859375
4344,11,-17.02,67.875
4345,11,-17.08,67.890625
4346,11,-17.13,67.90625
4347,11,-17.32,67.921875
4348,11,-17.64,67.9375
4349,11,-17.99,67.953125
4350,11,-18.13,67.96875
4351,11,-17.89,67.984375
4352,11,-17.27,68.0
4353,11,-16.45,68.015625
4354,11,-15.79,68.03125
4355,11,-15.62,68.046875
4356,11,-16.04,68.0625
4357,11,-16.86,68.078125
4358,11,-17.63,68.09375
4359,11,-17.84,68.109375
4360,11,-17.12,68.125
4361,11,-15.41,68.140625
4362,11,-12.97,68.15625
4363,11,-10.25,68.171875
4364,11,-7.66,68.1875
4365,11,-5.44,68.203125
4366,11,-3.54,68.21875
4367,11,-1.69,68.234375
4368,11,0.55,68.25
4369,11,3.54,68.265625
4370,11,7.43,68.28125
4371,11,11.91,68.296875
4372,11,16.24,68.3125
4373,11,19.3,68.328125
4374,11,19.84,68.34375
4375,11,16.91,68.359375
4376,11,10.13,68.375
4377,11,0.01,68.390625
4378,11,-12.15,68.40625
4379,11,-24.55,68.421875
4380,11,-35.35,68.4375
4381,11,-43.22,68.453125
4382,11,-47.53,68.46875
4383,11,-48.51,68.484375
4384,11,-47.04,68.5
4385,11,-44.35,68.515625
4386,11,-41.72,68.53125
4387,11,-40.09,68.546875
4388,11,-39.99,68.5625
4389,11,-41.34,68.578125
4390,11,-43.7,68.59375
4391,11,-46.33,68.609375
4392,11,-48.5,68.625
4393,11,-49.62,68.640625
4394,11,-49.35,68.65625
4395,11,-47.65,68.671875
4396,11,-44.6,68.6875
4397,11,-40.34,68.703125
4398,11,-34.91,68.71875
4399,11,-28.4,68.734375
4400,11,-20.95,68.75
4401,11,-12.87,68.765625
4402,11,-4.75,68.78125
4403,11,2.72,68.796875
4404,11,8.95,68.8125
4405,11,13.7,68.828125
4406,11,17.22,68.84375
4407,11,20.2,68.859375
4408,11,23.48,68.875
4409,11,27.73,68.890625
4410,11,33.26,68.90625
4411,11,39.98,68.921875
4412,11,47.56,68.9375
4413,11,55.54,68.953125
4414,11,63.43,68.96875
4415,11,70.58,68.984375
4416,11,76.23,69.0
4417,11,79.46,69.015625
4418,11,79.55,69.03125
4419,11,76.26,69.046875
4420,11,70.04,69.0625
4421,11,62.06,69.078125
4422,11,53.85,69.09375
4423,11,46.78,69.109375
4424,11,41.58,69.125
4425,11,38.0,69.140625
4426,11,35.02,69.15625
4427,11,31.26,69.171875
4428,11,25.71,69.1875
4429,11,18.11,69.203125
4430,11,9.14,69.21875
4431,11,0.12,69.234375
4432,11,-7.56,69.25
4433,11,-12.92,69.265625
4434,11,-15.7,69.28125
4435,11,-16.25,69.296875
4436,11,-15.24,69.3125
4437,11,-13.31,69.328125
4438,11,-10.97,69.34375
4439,11,-8.54,69.359375
4440,11,-6.3,69.375
4441,11,-4.55,69.390625
4442,11,-3.51,69.40625
4443,11,-3.23,69.421875
4444,11,-3.49,69.4375
4445,11,-3.9,69.453125
4446,11,-4.01,69.46875
4447,11,-3.54,69.484375
4448,11,-2.47,69.5
4449,11,-1.03,69.515625
4450,11,0.52,69.53125
4451,11,1.89,69.546875
4452,11,2.84,69.5625
4453,11,3.19,69.578125
4454,11,2.82,69.59375
4455,11,1.77,69.609375
4456,11,0.33,69.625
4457,11,-0.99,69.640625
4458,11,-1.62,69.65625
4459,11,-1.22,69.671875
4460,11,0.16,69.6875
4461,11,2.07,69.703125
4462,11,3.89,69.71875
4463,11,5.09,69.734375
4464,11,5.46,69.75
4465,11,5.09,69.765625
4466,11,4.24,69.78125
4467,11,3.2,69.796875
4468,11,2.16,69.8125
4469,11,1.24,69.828125
4470,11,0.47,69.84375
4471,11,-0.15,69.859375
4472,11,-0.75,69.875
4473,11,-1.46,69.890625
4474,11,-2.43,69.90625
4475,11,-3.72,69.921875
4476,11,-5.23,69.9375
4477,11,-6.81,69.953125
4478,11,-8.33,69.96875
4479,11,-9.78,69.984375
4480,11,-11.24,70.0
4481,11,-12.9,70.015625
4482,11,-14.9,70.03125
4483,11,-17.34,70.046875
4484,11,-20.2,70.0625
4485,11,-23.41,70.078125
4486,11,-26.81,70.09375
4487,11,-30.19,70.109375
4488,11,-33.34,70.125
4489,11,-36.14,70.140625
4490,11,-38.68,70.15625
4491,11,-41.22,70.171875
4492,11,-44.14,70.1875
4493,11,-47.61,70.203125
4494,11,-51.42,70.21875
4495,11,-54.96,70.234375
4496,11,-57.33,70.25
4497,11,-57.69,70.265625
4498,11,-55.56,70.28125
4499,11,-50.94,70.296875
4500,11,-44.35,70.3125
4501,11,-36.57,70.328125
4502,11,-28.49,70.34375
4503,11,-20.84,70.359375
4504,11,-14.09,70.375
4505,11,-8.45,70.390625
4506,11,-3.83,70.40625
4507,11,0.05,70.421875
4508,11,3.5,70.4375
4509,11,6.74,70.453125
4510,11,9.76,70.46875
4511,11,12.36,70.484375
4512,11,14.22,70.5
4513,11,15.06,70.515625
4514,11,14.7,70.53125
4515,11,13.27,70.546875
4516,11,11.11,70.5625
4517,11,8.61,70.578125
4518,11,6.09,70.59375
4519,11,3.64,70.609375
4520,11,1.15,70.625
4521,11,-1.5,70.640625
4522,11,-4.41,70.65625
4523,11,-7.79,70.671875
4524,11,-11.68,70.6875
4525,11,-16.01,70.703125
4526,11,-20.58,70.71875
4527,11,-25.13,70.734375
4528,11,-29.36,70.75
4529,11,-32.96,70.765625
4530,11,-35.62,70.78125
4531,11,-37.24,70.796875
4532,11,-38.25,70.8125
4533,11,-39.25,70.828125
4534,11,-40.82,70.84375
4535,11,-43.23,70.859375
4536,11,-46.31,70.875
4537,11,-49.5,70.890625
4538,11,-51.89,70.90625
4539,11,-52.35,70.921875
4540,11,-49.78,70.9375
4541,11,-43.8,70.953125
4542,11,-34.38,70.96875
4543,11,-22.04,70.984375
4544,11,-7.85,71.0
4545,11,6.76,71.015625
4546,11,19.93,71.03125
4547,11,30.16,71.046875
4548,11,36.71,71.0625
4549,11,42.06,71.078125
4550,11,47.67,71.09375
4551,11,54.21,71.109375
4552,11,61.55,71.125
4553,11,68.53,71.140625
4554,11,75.15,71.15625
4555,11,81.12,71.171875
4556,11,86.19,71.1875
4557,11,89.72,71.203125
4558,11,91.47,71.21875
4559,11,91.39,71.234375
4560,11,89.99,71.25
4561,11,88.03,71.265625
4562,11,86.22,71.28125
4563,11,85.15,71.296875
4564,11,84.92,71.3125
4565,11,85.31,71.328125
4566,11,86.02,71.34375
4567,11,86.75,71.359375
4568,11,86.94,71.375
4569,11,86.26,71.390625
4570,11,84.64,71.40625
4571,11,82.25,71.421875
4572,11,79.41,71.4375
4573,11,76.25,71.453125
4574,11,72.83,71.46875
4575,11,69.16,71.484375
4576,11,65.37,71.5
4577,11,61.47,71.515625
4578,11,57.59,71.53125
4579,11,53.95,71.546875
4580,11,50.69,71.5625
4581,11,47.88,71.578125
4582,11,45.31,71.59375
4583,11,42.74,71.609375
4584,11,40.02,71.625
4585,11,37.19,71.640625
4586,11,34.31,71.65625
4587,11,31.55,71.671875
4588,11,29.02,71.6875
4589,11,26.74,71.703125
4590,11,24.65,71.71875
4591,11,22.63,71.734375
4592,11,20.73,71.75
4593,11,19.12,71.765625
4594,11,18.01,71.78125
4595,11,17.32,71.796875
4596,11,16.57,71.8125
4597,11,14.86,71.828125
4598,11,11.13,71.84375
4599,11,4.68,71.859375
4600,11,-4.5,71.875
4601,11,-15.59,71.890625
4602,11,-27.18,71.90625
4603,11,-37.76,71.921875
4604,11,-46.26,71.9375
4605,11,-52.29,71.953125
4606,11,-56.05,71.96875
4607,11,-58.06,71.984375
4608,11,-58.81,72.0
4609,11,-58.6,72.015625
4610,11,-57.69,72.03125
4611,11,-56.39,72.046875
4612,11,-55.25,72.0625
4613,11,-54.96,72.078125
4614,11,-56.15,72.09375
4615,11,-59.09,72.109375
4616,11,-63.58,72.125
4617,11,-68.97,72.140625
4618,11,-74.51,72.15625
4619,11,-79.52,72.171875
4620,11,-83.55,72.1875
4621,11,-86.17,72.203125
4622,11,-86.85,72.21875
4623,11,-84.81,72.234375
4624,11,-79.34,72.25
4625,11,-70.16,72.265625
4626,11,-57.83,72.28125
4627,11,-43.87,72.296875
4628,11,-30.33,72.3125
4629,11,-19.13,72.328125
4630,11,-11.47,72.34375
4631,11,-7.49,72.359375
4632,11,-6.53,72.375
4633,11,-7.47,72.390625
4634,11,-9.2,72.40625
4635,11,-10.74,72.421875
4636,11,-11.21,72.4375
4637,11,-9.83,72.453125
4638,11,-6.12,72.46875
4639,11,-0.21,72.484375
4640,11,6.94,72.5
4641,11,13.59,72.515625
4642,11,17.76,72.53125
4643,11,18.06,72.546875
4644,11,14.29,72.5625
4645,11,7.65,72.578125
4646,11,0.28,72.59375
4647,11,-5.62,72.609375
4648,11,-8.63,72.625
4649,11,-8.6,72.640625
4650,11,-6.49,72.65625
4651,11,-3.71,72.671875
4652,11,-1.41,72.6875
4653,11,0.05,72.703125
4654,11,0.99,72.71875
4655,11,2.04,72.734375
4656,11,3.56,72.75
4657,11,5.42,72.765625
4658,11,7.04,72.78125
4659,11,7.78,72.796875
4660,11,7.3,72.8125
4661,11,5.63,72.828125
4662,11,3.18,72.84375
4663,11,0.41,72.859375
4664,11,-2.29,72.875
4665,11,-4.67,72.890625
4666,11,-6.56,72.90625
4667,11,-7.77,72.921875
4668,11,-8.28,72.9375
4669,11,-8.28,72.953125
4670,11,-8.21,72.96875
4671,11,-8.65,72.984375
4672,11,-10.02,73.0
4673,11,-12.4,73.015625
4674,11,-15.48,73.03125
4675,11,-18.74,73.046875
4676,11,-21.64,73.0625
4677,11,-23.84,73.078125
4678,11,-25.26,73.09375
4679,11,-26.05,73.109375
4680,11,-26.44,73.125
4681,11,-26.75,73.140625
4682,11,-27.33,73.15625
4683,11,-28.54,73.171875
4684,11,-30.62,73.1875
4685,11,-33.52,73.203125
4686,11,-36.76,73.21875
4687,11,-39.47,73.234375
4688,11,-40.59,73.25
4689,11,-39.26,73.265625
4690,11,-35.1,73.28125
4691,11,-28.39,73.296875
4692,11,-19.9,73.3125
4693,11,-10.73,73.328125
4694,11,-1.91,73.34375
4695,11,5.83,73.359375
4696,11,12.18,73.375
4697,11,17.11,73.390625
4698,11,20.82,73.40625
4699,11,23.61,73.421875
4700,11,25.73,73.4375
4701,11,27.43,73.453125
4702,11,28.83,73.46875
4703,11,30.0,73.484375
4704,11,30.87,73.5
4705,11,31.26,73.515625
4706,11,31.04,73.53125
4707,11,30.19,73.546875
4708,11,28.88,73.5625
4709,11,27.5,73.578125
4710,11,26.49,73.59375
4711,11,26.19,73.609375
4712,11,26.69,73.625
4713,11,27.82,73.640625
4714,11,29.23,73.65625
4715,11,30.51,73.671875
4716,11,31.29,73.6875
4717,11,31.4,73.703125
4718,11,30.73,73.71875
4719,11,29.38,73.734375
4720,11,27.59,73.75
4721,11,25.66,73.765625
4722,11,23.92,73.78125
4723,11,22.55,73.796875
4724,11,21.52,73.8125
4725,11,20.57,73.828125
4726,11,19.36,73.84375
4727,11,17.64,73.859375
4728,11,15.37,73.875
4729,11,12.72,73.890625
4730,11,10.01,73.90625
4731,11,7.48,73.921875
4732,11,5.21,73.9375
4733,11,3.12,73.953125
4734,11,1.0,73.96875
4735,11,-1.35,73.984375
4736,11,-3.97,74.0
4737,11,-6.84,74.015625
4738,11,-9.8,74.03125
4739,11,-12.67,74.046875
4740,11,-15.3,74.0625
4741,11,-17.65,74.078125
4742,11,-19.79,74.09375
4743,11,-21.88,74.109375
4744,11,-24.09,74.125
4745,11,-26.59,74.140625
4746,11,-29.49,74.15625
4747,11,-32.85,74.171875
4748,11,-36.57,74.1875
4749,11,-40.32,74.203125
4750,11,-43.45,74.21875
4751,11,-45.14,74.234375
4752,11,-44.54,74.25
4753,11,-41.16,74.265625
4754,11,-35.14,74.28125
4755,11,-27.2,74.296875
4756,11,-18.44,74.3125
4757,11,-9.91,74.328125
4758,11,-2.32,74.34375
4759,11,4.16,74.359375
4760,11,9.69,74.375
4761,11,14.45,74.390625
4762,11,18.48,74.40625
4763,11,21.6,74.421875
4764,11,23.6,74.4375
4765,11,24.41,74.453125
4766,11,24.26,74.46875
4767,11,23.6,74.484375
4768,11,22.91,74.5
4769,11,22.49,74.515625
4770,11,22.36,74.53125
4771,11,22.32,74.546875
4772,11,22.16,74.5625
4773,11,21.8,74.578125
4774,11,21.35,74.59375
4775,11,21.13,74.609375
4776,11,21.38,74.625
4777,11,22.16,74.640625
4778,11,23.28,74.65625
4779,11,24.36,74.671875
4780,11,25.03,74.6875
4781,11,25.09,74.703125
4782,11,24.62,74.71875
4783,11,23.84,74.734375
4784,11,23.02,74.75
4785,11,22.27,74.765625
4786,11,21.6,74.78125
4787,11,20.9,74.796875
4788,11,20.04,74.8125
4789,11,19.0,74.828125
4790,11,17.79,74.84375
4791,11,16.4,74.859375
4792,11,14.82,74.875
4793,11,13.02,74.890625
4794,11,10.98,74.90625
4795,11,8.71,74.921875
4796,11,6.24,74.9375
4797,11,3.6,74.953125
4798,11,0.8,74.96875
4799,11,-2.19,74.984375
4800,11,-5.31,75.0
4801,11,-8.5,75.015625
4802,11,-11.53,75.03125
4803,11,-14.2,75.046875
4804,11,-16.36,75.0625
4805,11,-18.04,75.078125
4806,11,-19.55,75.09375
4807,11,-21.35,75.109375
4808,11,-23.93,75.125
4809,11,-27.56,75.140625
4810,11,-32.14,75.15625
4811,11,-37.04,75.171875
4812,11,-41.3,75.1875
4813,11,-43.8,75.203125
4814,11,-43.73,75.21875
4815,11,-40.76,75.234375
4816,11,-35.17,75.25
4817,11,-27.74,75.265625
4818,11,-19.48,75.28125
4819,11,-11.3,75.296875
4820,11,-3.87,75.3125
4821,11,2.45,75.328125
4822,11,7.56,75.34375
4823,11,11.54,75.359375
4824,11,14.52,75.375
4825,11,16.73,75.390625
4826,11,18.37,75.40625
4827,11,19.63,75.421875
4828,11,20.6,75.4375
4829,11,21.36,75.453125
4830,11,21.87,75.46875
4831,11,22.1,75.484375
4832,11,22.01,75.5
4833,11,21.59,75.515625
4834,11,20.84,75.53125
4835,11,19.86,75.546875
4836,11,18.78,75.5625
4837,11,17.83,75.578125
4838,11,17.32,75.59375
4839,11,17.47,75.609375
4840,11,18.38,75.625
4841,11,19.9,75.640625
4842,11,21.64,75.65625
4843,11,23.07,75.671875
4844,11,23.77,75.6875
4845,11,23.59,75.703125
4846,11,22.7,75.71875
4847,11,21.53,75.734375
4848,11,20.47,75.75
4849,11,19.7,75.765625
4850,11,19.06,75.78125
4851,11,18.18,75.796875
4852,11,16.73,75.8125
4853,11,14.58,75.828125
4854,11,11.89,75.84375
4855,11,9.0,75.859375
4856,11,6.21,75.875
4857,11,3.68,75.890625
4858,11,1.33,75.90625
4859,11,-0.94,75.921875
4860,11,-3.21,75.9375
4861,11,-5.45,75.953125
4862,11,-7.62,75.96875
4863,11,-9.72,75.984375
4864,11,-11.81,76.0
4865,11,-14.03,76.015625
4866,11,-16.38,76.03125
4867,11,-18.78,76.046875
4868,11,-21.02,76.0625
4869,11,-23.02,76.078125
4870,11,-24.86,76.09375
4871,11,-26.86,76.109375
4872,11,-29.37,76.125
4873,11,-32.59,76.140625
4874,11,-36.31,76.15625
4875,11,-39.9,76.171875
4876,11,-42.47,76.1875
4877,11,-43.18,76.203125
4878,11,-41.5,76.21875
4879,11,-37.43,76.234375
4880,11,-31.41,76.25
4881,11,-24.2,76.265625
4882,11,-16.61,76.28125
4883,11,-9.28,76.296875
4884,11,-2.62,76.3125
4885,11,3.21,76.328125
4886,11,8.19,76.34375
4887,11,12.32,76.359375
4888,11,15.61,76.375
4889,11,18.05,76.390625
4890,11,19.71,76.40625
4891,11,20.7,76.421875
4892,11,21.22,76.4375
4893,11,21.49,76.453125
4894,11,21.65,76.46875
4895,11,21.71,76.484375
4896,11,21.62,76.5
4897,11,21.31,76.515625
4898,11,20.76,76.53125
4899,11,20.08,76.546875
4900,11,19.45,76.5625
4901,11,19.05,76.578125
4902,11,19.02,76.59375
4903,11,19.35,76.609375
4904,11,19.92,76.625
4905,11,20.51,76.640625
4906,11,20.86,76.65625
4907,11,20.76,76.671875
4908,11,20.12,76.6875
4909,11,18.94,76.703125
4910,11,17.4,76.71875
4911,11,15.75,76.734375
4912,11,14.25,76.75
4913,11,13.06,76.765625
4914,11,12.18,76.78125
4915,11,11.41,76.796875
4916,11,10.47,76.8125
4917,11,9.16,76.828125
4918,11,7.43,76.84375
4919,11,5.44,76.859375
4920,11,3.49,76.875
4921,11,1.78,76.890625
4922,11,0.37,76.90625
4923,11,-0.89,76.921875
4924,11,-2.25,76.9375
4925,11,-3.95,76.953125
4926,11,-6.01,76.96875
4927,11,-8.29,76.984375
4928,11,-10.57,77.0
4929,11,-12.7,77.015625
4930,11,-14.7,77.03125
4931,11,-16.69,77.046875
4932,11,-18.85,77.0625
4933,11,-21.26,77.078125
4934,11,-23.91,77.09375
4935,11,-26.73,77.109375
4936,11,-29.68,77.125
4937,11,-32.77,77.140625
4938,11,-35.95,77.15625
4939,11,-39.02,77.171875
4940,11,-41.45,77.1875
4941,11,-42.51,77.203125
4942,11,-41.46,77.21875
4943,11,-37.9,77.234375
4944,11,-31.98,77.25
4945,11,-24.41,77.265625
4946,11,-16.26,77.28125
4947,11,-8.52,77.296875
4948,11,-1.86,77.3125
4949,11,3.48,77.328125
4950,11,7.61,77.34375
4951,11,10.74,77.359375
4952,11,13.04,77.375
4953,11,14.58,77.390625
4954,11,15.47,77.40625
4955,11,15.88,77.421875
4956,11,16.11,77.4375
4957,11,16.44,77.453125
4958,11,17.05,77.46875
4959,11,17.87,77.484375
4960,11,18.67,77.5
4961,11,19.19,77.515625
4962,11,19.27,77.53125
4963,11,18.98,77.546875
4964,11,18.47,77.5625
4965,11,18.04,77.578125
4966,11,17.83,77.59375
4967,11,17.91,77.609375
4968,11,18.19,77.625
4969,11,18.53,77.640625
4970,11,18.76,77.65625
4971,11,18.69,77.671875
4972,11,18.2,77.6875
4973,11,17.22,77.703125
4974,11,15.83,77.71875
4975,11,14.16,77.734375
4976,11,12.41,77.75
4977,11,10.72,77.765625
4978,11,9.13,77.78125
4979,11,7.59,77.796875
4980,11,6.03,77.8125
4981,11,4.43,77.828125
4982,11,2.86,77.84375
4983,11,1.47,77.859375
4984,11,0.38,77.875
4985,11,-0.36,77.890625
4986,11,-0.85,77.90625
4987,11,-1.35,77.921875
4988,11,-2.13,77.9375
4989,11,-3.39,77.953125
4990,11,-5.17,77.96875
4991,11,-7.36,77.984375
4992,11,-9.68,78.0
4993,11,-11.85,78.015625
4994,11,-13.71,78.03125
4995,11,-15.23,78.046875
4996,11,-16.57,78.0625
4997,11,-17.99,78.078125
4998,11,-19.7,78.09375
4999,11,-21.84,78.109375
5000,11,-24.33,78.125
5001,11,-26.94,78.140625
5002,11,-29.19,78.15625
5003,11,-30.51,78.171875
5004,11,-30.31,78.1875
5005,11,-28.19,78.203125
5006,11,-24.18,78.21875
5007,11,-18.74,78.234375
5008,11,-12.71,78.25
5009,11,-6.98,78.265625
5010,11,-2.16,78.28125
5011,11,1.57,78.296875
5012,11,4.44,78.3125
5013,11,6.8,78.328125
5014,11,8.89,78.34375
5015,11,10.69,78.359375
5016,11,12.01,78.375
5017,11,12.69,78.390625
5018,11,12.79,78.40625
5019,11,12.59,78.421875
5020,11,12.47,78.4375
5021,11,12.67,78.453125
5022,11,13.15,78.46875
5023,11,13.66,78.484375
5024,11,13.9,78.5
5025,11,13.74,78.515625
5026,11,13.36,78.53125
5027,11,13.06,78.546875
5028,11,13.16,78.5625
5029,11,13.7,78.578125
5030,11,14.48,78.59375
5031,11,15.09,78.609375
5032,11,15.22,78.625
5033,11,14.78,78.640625
5034,11,13.96,78.65625
5035,11,13.08,78.671875
5036,11,12.4,78.6875
5037,11,11.98,78.703125
5038,11,11.63,78.71875
5039,11,11.09,78.734375
5040,11,10.18,78.75
5041,11,8.88,78.765625
5042,11,7.36,78.78125
5043,11,5.86,78.796875
5044,11,4.59,78.8125
5045,11,3.58,78.828125
5046,11,2.74,78.84375
5047,11,1.85,78.859375
5048,11,0.66,78.875
5049,11,-0.99,78.890625
5050,11,-3.19,78.90625
5051,11,-5.8,78.921875
5052,11,-8.63,78.9375
5053,11,-11.41,78.953125
5054,11,-13.93,78.96875
5055,11,-16.14,78.984375
5056,11,-18.09,79.0
5057,11,-19.88,79.015625
5058,11,-21.61,79.03125
5059,11,-23.4,79.046875
5060,11,-25.38,79.0625
5061,11,-27.69,79.078125
5062,11,-30.41,79.09375
5063,11,-33.4,79.109375
5064,11,-36.23,79.125
5065,11,-38.2,79.140625
5066,11,-38.59,79.15625
5067,11,-36.88,79.171875
5068,11,-33.04,79.1875
5069,11,-27.47,79.203125
5070,11,-20.94,79.21875
5071,11,-14.29,79.234375
5072,11,-8.19,79.25
5073,11,-3.02,79.265625
5074,11,1.16,79.28125
5075,11,4.5,79.296875
5076,11,7.26,79.3125
5077,11,9.62,79.328125
5078,11,11.69,79.34375
5079,11,13.4,79.359375
5080,11,14.62,79.375
5081,11,15.27,79.390625
5082,11,15.4,79.40625
5083,11,15.21,79.421875
5084,11,14.91,79.4375
5085,11,14.68,79.453125
5086,11,14.58,79.46875
5087,11,14.53,79.484375
5088,11,14.49,79.5
5089,11,14.5,79.515625
5090,11,14.65,79.53125
5091,11,15.05,79.546875
5092,11,15.68,79.5625
5093,11,16.39,79.578125
5094,11,16.98,79.59375
5095,11,17.28,79.609375
5096,11,17.23,79.625
5097,11,16.86,79.640625
5098,11,16.21,79.65625
5099,11,15.31,79.671875
5100,11,14.17,79.6875
5101,11,12.81,79.703125
5102,11,11.27,79.71875
5103,11,9.62,79.734375
5104,11,7.93,79.75
5105,11,6.3,79.765625
5106,11,4.79,79.78125
5107,11,3.47,79.796875
5108,11,2.39,79.8125
5109,11,1.57,79.828125
5110,11,0.95,79.84375
5111,11,0.39,79.859375
5112,11,-0.33,79.875
5113,11,-1.44,79.890625
5114,11,-3.11,79.90625
5115,11,-5.38,79.921875
5116,11,-8.17,79.9375
5117,11,-11.23,79.953125
5118,11,-14.28,79.96875
5119,11,-17.06,79.984375
5120,11,-19.43,80.0
5121,11,-21.45,80.015625
5122,11,-23.36,80.03125
5123,11,-25.5,80.046875
5124,11,-28.19,80.0625
5125,11,-31.54,80.078125
5126,11,-35.37,80.09375
5127,11,-39.19,80.109375
5128,11,-42.34,80.125
5129,11,-44.05,80.140625
5130,11,-43.78,80.15625
5131,11,-41.28,80.171875
5132,11,-36.76,80.1875
5133,11,-30.71,80.203125
5134,11,-23.79,80.21875
5135,11,-16.68,80.234375
5136,11,-9.92,80.25
5137,11,-3.94,80.265625
5138,11,1.01,80.28125
5139,11,4.87,80.296875
5140,11,7.77,80.3125
5141,11,10.03,80.328125
5142,11,12.1,80.34375
5143,11,14.24,80.359375
5144,11,16.52,80.375
5145,11,18.69,80.390625
5146,11,20.35,80.40625
5147,11,21.23,80.421875
5148,11,21.32,80.4375
5149,11,20.96,80.453125
5150,11,20.55,80.46875
5151,11,20.39,80.484375
5152,11,20.55,80.5
5153,11,20.87,80.515625
5154,11,21.2,80.53125
5155,11,21.48,80.546875
5156,11,21.79,80.5625
5157,11,22.24,80.578125
5158,11,22.81,80.59375
5159,11,23.26,80.609375
5160,11,23.23,80.625
5161,11,22.48,80.640625
5162,11,20.92,80.65625
5163,11,18.8,80.671875
5164,11,16.46,80.6875
5165,11,14.27,80.703125
5166,11,12.38,80.71875
5167,11,10.74,80.734375
5168,11,9.14,80.75
5169,11,7.32,80.765625
5170,11,5.14,80.78125
5171,11,2.63,80.796875
5172,11,-0.09,80.8125
5173,11,-2.76,80.828125
5174,11,-5.14,80.84375
5175,11,-7.1,80.859375
5176,11,-8.62,80.875
5177,11,-9.77,80.890625
5178,11,-10.69,80.90625
5179,11,-11.49,80.921875
5180,11,-12.24,80.9375
5181,11,-13.05,80.953125
5182,11,-14.01,80.96875
5183,11,-15.25,80.984375
5184,11,-16.86,81.0
5185,11,-18.85,81.015625
5186,11,-21.11,81.03125
5187,11,-23.52,81.046875
5188,11,-26.03,81.0625
5189,11,-28.66,81.078125
5190,11,-31.42,81.09375
5191,11,-34.21,81.109375
5192,11,-36.62,81.125
5193,11,-38.03,81.140625
5194,11,-37.81,81.15625
5195,11,-35.57,81.171875
5196,11,-31.38,81.1875
5197,11,-25.77,81.203125
5198,11,-19.48,81.21875
5199,11,-13.29,81.234375
5200,11,-7.72,81.25
5201,11,-2.99,81.265625
5202,11,0.9,81.28125
5203,11,4.07,81.296875
5204,11,6.62,81.3125
5205,11,8.65,81.328125
5206,11,10.22,81.34375
5207,11,11.42,81.359375
5208,11,12.36,81.375
5209,11,13.14,81.390625
5210,11,13.94,81.40625
5211,11,14.86,81.421875
5212,11,15.95,81.4375
5213,11,17.14,81.453125
5214,11,18.28,81.46875
5215,11,19.1,81.484375
5216,11,19.39,81.5
5217,11,19.11,81.515625
5218,11,18.41,81.53125
5219,11,17.64,81.546875
5220,11,17.14,81.5625
5221,11,17.01,81.578125
5222,11,17.15,81.59375
5223,11,17.24,81.609375
5224,11,16.96,81.625
5225,11,16.22,81.640625
5226,11,15.2,81.65625
5227,11,14.18,81.671875
5228,11,13.36,81.6875
5229,11,12.69,81.703125
5230,11,11.91,81.71875
5231,11,10.75,81.734375
5232,11,9.06,81.75
5233,11,6.9,81.765625
5234,11,4.45,81.78125
5235,11,1.88,81.796875
5236,11,-0.75,81.8125
5237,11,-3.45,81.828125
5238,11,-6.18,81.84375
5239,11,-8.87,81.859375
5240,11,-11.35,81.875
5241,11,-13.46,81.890625
5242,11,-15.25,81.90625
5243,11,-16.8,81.921875
5244,11,-18.3,81.9375
5245,11,-19.9,81.953125
5246,11,-21.72,81.96875
5247,11,-23.89,81.984375
5248,11,-26.59,82.0
5249,11,-29.98,82.015625
5250,11,-34.12,82.03125
5251,11,-38.83,82.046875
5252,11,-43.68,82.0625
5253,11,-48.0,82.078125
5254,11,-51.07,82.09375
5255,11,-52.24,82.109375
5256,11,-51.06,82.125
5257,11,-47.44,82.140625
5258,11,-41.61,82.15625
5259,11,-34.2,82.171875
5260,11,-26.07,82.1875
5261,11,-18.14,82.203125
5262,11,-11.1,82.21875
5263,11,-5.23,82.234375
